Commander Sample ID
5.0001   152
5.025252 152
5.050404 75
5.075556 5
5.100708 49
5.125859 57
5.151011 60
5.176163 138
5.201315 105
5.226467 0
5.251618 113
5.27677  32
5.301922 0
5.327074 0
5.352226 0
5.377378 247
5.402529 24
5.427681 0
5.452833 128
5.477985 98
5.503137 14
5.528288 0
5.55344  3
5.578592 13
5.603744 144
5.628896 0
5.654047 31
5.679199 0
5.704351 4
5.729503 55
5.754655 7
5.779807 174
5.804958 55
5.83011  10
5.855262 49
5.880414 152
5.905566 86
5.930717 75
5.955869 306
5.981021 123
6.006173 214
6.031325 75
6.056477 79
6.081628 25
6.106781 121
6.131932 77
6.157084 105
6.182236 115
6.207387 63
6.23254  136
6.257691 132
6.282843 134
6.307995 205
6.333147 247
6.358299 270
6.383451 215
6.408602 415
6.433754 288
6.458906 508
6.484058 360
6.50921  549
6.534361 575
6.559513 757
6.584665 623
6.609817 866
6.634969 1031
6.66012  814
6.685272 1106
6.710424 1122
6.735576 1202
6.760728 1147
6.78588  1313
6.811031 1278
6.836183 1400
6.861335 1344
6.886487 1336
6.911639 1312
6.93679  1359
6.961942 1496
6.987094 1298
7.012246 1529
7.037398 1381
7.06255  1338
7.087701 1395
7.112853 1385
7.138005 1348
7.163157 1185
7.188309 1187
7.21346  1211
7.238612 868
7.263764 880
7.288916 729
7.314068 627
7.33922  624
7.364371 503
7.389524 435
7.414675 434
7.439827 223
7.464979 314
7.49013  70
7.515283 218
7.540434 206
7.565586 153
7.590738 82
7.61589  59
7.641042 218
7.666193 0
7.691345 208
7.716497 34
7.741649 0
7.7668   101
7.791953 63
7.817104 0
7.842256 0
7.867408 78
7.89256  0
7.917712 0
7.942863 94
7.968015 8
7.993167 77
8.018319 0
8.04347  15
8.068623 0
8.093775 0
8.118926 92
8.144078 0
8.16923  32
8.194382 0
8.219534 41
8.244685 16
8.269837 20
8.294989 110
8.320141 47
8.345292 61
8.370444 75
8.395597 79
8.420748 30
8.4459   25
8.471051 6
8.496203 64
8.521356 0
8.546507 21
8.571659 0
8.59681  101
8.621963 21
8.647115 42
8.672266 72
8.697418 32
8.722569 29
8.747722 9
8.772874 0
8.798025 154
8.823177 128
8.848329 91
8.873481 45
8.898633 30
8.923784 152
8.948936 59
8.974088 24
8.99924  42
9.024392 39
9.049543 62
9.074696 67
9.099847 55
9.124999 0
9.150151 35
9.175303 91
9.200455 10
9.225606 0
9.250758 74
9.27591  41
9.301062 52
9.326214 98
9.351365 0
9.376517 0
9.40167  69
9.426821 0
9.451973 107
9.477124 23
9.502276 0
9.527429 80
9.55258  16
9.577732 28
9.602883 54
9.628036 26
9.653188 117
9.678339 52
9.703491 57
9.728642 37
9.753795 146
9.778947 68
9.804098 55
9.82925  54
9.854402 68
9.879554 3
9.904706 166
9.929857 32
9.955009 0
9.980161 128
10.00531 98
10.03046 126
10.05561 85
10.08076 162
10.10592 49
10.13107 117
10.15622 50
10.18137 43
10.20652 0
10.23167 84
10.25683 44
10.28198 0
10.30713 75
10.33228 27
10.35743 141
10.38259 8
10.40774 53
10.43289 85
10.45804 40
10.48319 26
10.50834 26
10.53350 0
10.55865 0
10.58380 57
10.60895 0
10.63410 0
10.65926 0
10.68441 2
10.70956 46
10.73471 0
10.75986 0
10.78501 0
10.81017 19
10.83532 0
10.86047 0
10.88562 0
10.91077 0
10.93593 0
10.96108 0
10.98623 0
11.01138 37
11.03653 0
11.06168 0
11.08684 0
11.11199 18
11.13714 0
11.16229 35
11.18744 0
11.21260 0
11.23775 28
11.26290 0
11.28805 14
11.31320 0
11.33836 0
11.36351 52
11.38866 18
11.41381 0
11.43896 38
11.46411 77
11.48927 82
11.51442 21
11.53957 41
11.56472 125
11.58987 45
11.61502 32
11.64018 75
11.66533 68
11.69048 142
11.71563 158
11.74078 156
11.76594 200
11.79109 181
11.81624 82
11.84139 144
11.86654 192
11.8917  57
11.91685 70
11.94200 133
11.96715 80
11.99230 11
12.01745 91
12.04261 57
12.06776 111
12.09291 2
12.11806 65
12.14321 22
12.16836 64
12.19352 0
12.21867 62
12.24382 0
12.26897 64
12.29412 58
12.31928 27
12.34443 0
12.36958 0
12.39473 86
12.41988 0
12.44504 69
12.47019 0
12.49534 86
12.52049 0
12.54564 0
12.57079 64
12.59595 64
12.62110 40
12.64625 38
12.67140 26
12.69655 23
12.72170 7
12.74686 0
12.77201 79
12.79716 68
12.82231 46
12.84746 0
12.87262 36
12.89777 31
12.92292 0
12.94807 0
12.97322 49
12.99838 52
13.02353 7
13.04868 32
13.07383 79
13.09898 15
13.12413 34
13.14929 62
13.17444 26
13.19959 10
13.22474 4
13.24989 77
13.27505 33
13.30020 3
13.32535 150
13.35050 62
13.37565 24
13.40080 40
13.42596 97
13.45111 101
13.47626 63
13.50141 145
13.52656 11
13.55172 157
13.57687 72
13.60202 133
13.62717 168
13.65232 133
13.67747 162
13.70263 111
13.72778 120
13.75293 150
13.77808 143
13.80323 88
13.82839 54
13.85354 183
13.87869 134
13.90384 24
13.92899 132
13.95414 76
13.9793  52
14.00445 122
14.02960 70
14.05475 96
14.07990 52
14.10506 55
14.13021 132
14.15536 22
14.18051 59
14.20566 7
14.23081 4
14.25597 51
14.28112 30
14.30627 25
14.33142 49
14.35657 8
14.38173 0
14.40688 2
14.43203 0
14.45718 22
14.48233 45
14.50748 43
14.53264 63
14.55779 102
14.58294 0
14.60809 0
14.63324 26
14.6584  0
14.68355 0
14.70870 0
14.73385 0
14.75900 0
14.78415 0
14.80931 24
14.83446 0
14.85961 38
14.88476 0
14.90991 38
14.93507 0
14.96022 80
14.98537 0
15.01052 0
