Commander Sample ID
5.0001   101
5.025252 101
5.050404 72
5.075556 11
5.100708 84
5.125859 121
5.151011 0
5.176163 0
5.201315 0
5.226467 0
5.251618 100
5.27677  0
5.301922 53
5.327074 0
5.352226 0
5.377378 0
5.402529 0
5.427681 0
5.452833 0
5.477985 0
5.503137 0
5.528288 26
5.55344  0
5.578592 16
5.603744 0
5.628896 0
5.654047 5
5.679199 0
5.704351 35
5.729503 0
5.754655 0
5.779807 0
5.804958 0
5.83011  0
5.855262 0
5.880414 0
5.905566 76
5.930717 0
5.955869 0
5.981021 0
6.006173 0
6.031325 0
6.056477 0
6.081628 0
6.106781 0
6.131932 52
6.157084 0
6.182236 0
6.207387 0
6.23254  0
6.257691 9
6.282843 0
6.307995 0
6.333147 103
6.358299 0
6.383451 0
6.408602 46
6.433754 0
6.458906 0
6.484058 0
6.50921  82
6.534361 46
6.559513 163
6.584665 145
6.609817 180
6.634969 70
6.66012  13
6.685272 229
6.710424 277
6.735576 339
6.760728 182
6.78588  335
6.811031 384
6.836183 454
6.861335 378
6.886487 528
6.911639 488
6.93679  482
6.961942 686
6.987094 733
7.012246 887
7.037398 1127
7.06255  1265
7.087701 1474
7.112853 1699
7.138005 2423
7.163157 2975
7.188309 3720
7.21346  3917
7.238612 3607
7.263764 3354
7.288916 3012
7.314068 2030
7.33922  1070
7.364371 404
7.389524 100
7.414675 62
7.439827 37
7.464979 75
7.49013  0
7.515283 0
7.540434 0
7.565586 78
7.590738 0
7.61589  0
7.641042 0
7.666193 0
7.691345 0
7.716497 0
7.741649 0
7.7668   10
7.791953 0
7.817104 0
7.842256 0
7.867408 0
7.89256  59
7.917712 39
7.942863 6
7.968015 131
7.993167 75
8.018319 107
8.04347  78
8.068623 135
8.093775 218
8.118926 263
8.144078 295
8.16923  417
8.194382 386
8.219534 629
8.244685 557
8.269837 955
8.294989 872
8.320141 1213
8.345292 1498
8.370444 1380
8.395597 1443
8.420748 1257
8.4459   981
8.471051 461
8.496203 206
8.521356 140
8.546507 50
8.571659 2
8.59681  48
8.621963 48
8.647115 0
8.672266 51
8.697418 14
8.722569 56
8.747722 0
8.772874 14
8.798025 9
8.823177 88
8.848329 15
8.873481 0
8.898633 0
8.923784 0
8.948936 0
8.974088 0
8.99924  53
9.024392 0
9.049543 0
9.074696 33
9.099847 0
9.124999 0
9.150151 0
9.175303 0
9.200455 0
9.225606 0
9.250758 0
9.27591  0
9.301062 0
9.326214 0
9.351365 0
9.376517 0
9.40167  0
9.426821 0
9.451973 3
9.477124 0
9.502276 7
9.527429 8
9.55258  65
9.577732 13
9.602883 51
9.628036 0
9.653188 15
9.678339 0
9.703491 115
9.728642 33
9.753795 0
9.778947 29
9.804098 0
9.82925  0
9.854402 45
9.879554 8
9.904706 0
9.929857 94
9.955009 72
9.980161 0
10.00531 28
