Commander Sample ID
5.0001   217
5.025252 217
5.050404 101
5.075556 0
5.100708 181
5.125859 67
5.151011 11
5.176163 0
5.201315 0
5.226467 47
5.251618 134
5.27677  0
5.301922 0
5.327074 47
5.352226 2
5.377378 173
5.402529 0
5.427681 46
5.452833 23
5.477985 26
5.503137 0
5.528288 31
5.55344  44
5.578592 0
5.603744 17
5.628896 0
5.654047 0
5.679199 92
5.704351 0
5.729503 0
5.754655 0
5.779807 55
5.804958 3
5.83011  0
5.855262 0
5.880414 0
5.905566 52
5.930717 0
5.955869 0
5.981021 62
6.006173 0
6.031325 9
6.056477 28
6.081628 0
6.106781 78
6.131932 53
6.157084 0
6.182236 121
6.207387 0
6.23254  143
6.257691 114
6.282843 27
6.307995 0
6.333147 0
6.358299 101
6.383451 28
6.408602 14
6.433754 0
6.458906 47
6.484058 31
6.50921  8
6.534361 0
6.559513 0
6.584665 5
6.609817 185
6.634969 0
6.66012  72
6.685272 131
6.710424 35
6.735576 0
6.760728 152
6.78588  19
6.811031 145
6.836183 134
6.861335 149
6.886487 198
6.911639 144
6.93679  174
6.961942 224
6.987094 196
7.012246 332
7.037398 352
7.06255  444
7.087701 419
7.112853 699
7.138005 622
7.163157 854
7.188309 1137
7.21346  1334
7.238612 1785
7.263764 2446
7.288916 3315
7.314068 3822
7.33922  2573
7.364371 714
7.389524 374
7.414675 187
7.439827 173
7.464979 119
7.49013  55
7.515283 133
7.540434 81
7.565586 107
7.590738 108
7.61589  92
7.641042 210
7.666193 6
7.691345 87
7.716497 116
7.741649 108
7.7668   98
7.791953 61
7.817104 55
7.842256 16
7.867408 131
7.89256  74
7.917712 37
7.942863 91
7.968015 78
7.993167 23
8.018319 101
8.04347  62
8.068623 120
8.093775 158
8.118926 114
8.144078 262
8.16923  78
8.194382 150
8.219534 247
8.244685 276
8.269837 270
8.294989 392
8.320141 540
8.345292 632
8.370444 763
8.395597 1227
8.420748 1725
8.4459   2200
8.471051 1647
8.496203 582
8.521356 218
8.546507 29
8.571659 68
8.59681  102
8.621963 24
8.647115 55
8.672266 100
8.697418 93
8.722569 108
8.747722 92
8.772874 31
8.798025 117
8.823177 24
8.848329 75
8.873481 160
8.898633 56
8.923784 0
8.948936 76
8.974088 38
8.99924  144
9.024392 9
9.049543 37
9.074696 91
9.099847 69
9.124999 32
9.150151 107
9.175303 84
9.200455 118
9.225606 99
9.250758 125
9.27591  92
9.301062 99
9.326214 53
9.351365 84
9.376517 95
9.40167  72
9.426821 125
9.451973 24
9.477124 109
9.502276 95
9.527429 68
9.55258  71
9.577732 143
9.602883 62
9.628036 112
9.653188 98
9.678339 48
9.703491 48
9.728642 61
9.753795 55
9.778947 74
9.804098 9
9.82925  42
9.854402 32
9.879554 98
9.904706 70
9.929857 0
9.955009 33
9.980161 17
10.00531 45
