Commander Sample ID
5.0001   0
5.025252 0
5.050404 110
5.075556 66
5.100708 106
5.125859 0
5.151011 276
5.176163 188
5.201315 113
5.226467 80
5.251618 109
5.27677  142
5.301922 202
5.327074 132
5.352226 112
5.377378 271
5.402529 273
5.427681 181
5.452833 147
5.477985 139
5.503137 344
5.528288 256
5.55344  395
5.578592 390
5.603744 484
5.628896 586
5.654047 489
5.679199 679
5.704351 702
5.729503 847
5.754655 913
5.779807 1126
5.804958 1360
5.83011  1582
5.855262 1819
5.880414 2190
5.905566 2414
5.930717 3053
5.955869 3685
5.981021 3920
6.006173 4763
6.031325 4365
6.056477 3619
6.081628 2414
6.106781 1488
6.131932 871
6.157084 717
6.182236 302
6.207387 289
6.23254  260
6.257691 180
6.282843 134
6.307995 102
6.333147 142
6.358299 29
6.383451 59
6.408602 0
6.433754 25
6.458906 4
6.484058 89
6.50921  0
6.534361 47
6.559513 0
6.584665 23
6.609817 0
6.634969 12
6.66012  0
6.685272 5
6.710424 0
6.735576 0
6.760728 0
6.78588  102
6.811031 0
6.836183 0
6.861335 0
6.886487 2
6.911639 9
6.93679  110
6.961942 0
6.987094 0
7.012246 62
7.037398 50
7.06255  49
7.087701 0
7.112853 0
7.138005 33
7.163157 7
7.188309 0
7.21346  89
7.238612 47
7.263764 70
7.288916 0
7.314068 50
7.33922  105
7.364371 71
7.389524 99
7.414675 73
7.439827 114
7.464979 0
7.49013  60
7.515283 48
7.540434 0
7.565586 27
7.590738 59
7.61589  84
7.641042 24
7.666193 149
7.691345 26
7.716497 0
7.741649 67
7.7668   90
7.791953 33
7.817104 40
7.842256 91
7.867408 0
7.89256  0
7.917712 8
7.942863 12
7.968015 60
7.993167 93
8.018319 13
8.04347  41
8.068623 133
8.093775 52
8.118926 71
8.144078 142
8.16923  98
8.194382 113
8.219534 117
8.244685 274
8.269837 208
8.294989 346
8.320141 290
8.345292 234
8.370444 384
8.395597 468
8.420748 475
8.4459   652
8.471051 688
8.496203 814
8.521356 731
8.546507 807
8.571659 662
8.59681  591
8.621963 465
8.647115 346
8.672266 363
8.697418 179
8.722569 321
8.747722 196
8.772874 75
8.798025 264
8.823177 173
8.848329 143
8.873481 168
8.898633 118
8.923784 205
8.948936 136
8.974088 77
8.99924  20
9.024392 83
9.049543 38
9.074696 102
9.099847 68
9.124999 105
9.150151 22
9.175303 102
9.200455 0
9.225606 72
9.250758 52
9.27591  13
9.301062 53
9.326214 0
9.351365 94
9.376517 0
9.40167  1
9.426821 11
9.451973 57
9.477124 46
9.502276 18
9.527429 8
9.55258  0
9.577732 84
9.602883 5
9.628036 82
9.653188 76
9.678339 42
9.703491 16
9.728642 4
9.753795 23
9.778947 63
9.804098 11
9.82925  56
9.854402 30
9.879554 22
9.904706 0
9.929857 0
9.955009 5
9.980161 31
10.00531 49
