Commander Sample ID
5.0001   155
5.025252 155
5.050404 31
5.075556 0
5.100708 172
5.125859 0
5.151011 218
5.176163 23
5.201315 117
5.226467 93
5.251618 68
5.27677  139
5.301922 9
5.327074 0
5.352226 8
5.377378 0
5.402529 0
5.427681 0
5.452833 0
5.477985 0
5.503137 0
5.528288 0
5.55344  0
5.578592 0
5.603744 0
5.628896 0
5.654047 0
5.679199 14
5.704351 8
5.729503 0
5.754655 0
5.779807 0
5.804958 0
5.83011  0
5.855262 0
5.880414 0
5.905566 0
5.930717 0
5.955869 0
5.981021 0
6.006173 0
6.031325 0
6.056477 0
6.081628 0
6.106781 0
6.131932 19
6.157084 0
6.182236 0
6.207387 0
6.23254  0
6.257691 0
6.282843 0
6.307995 0
6.333147 0
6.358299 0
6.383451 2
6.408602 4
6.433754 30
6.458906 0
6.484058 91
6.50921  17
6.534361 0
6.559513 0
6.584665 126
6.609817 59
6.634969 138
6.66012  127
6.685272 141
6.710424 214
6.735576 270
6.760728 182
6.78588  266
6.811031 199
6.836183 392
6.861335 383
6.886487 391
6.911639 381
6.93679  634
6.961942 554
6.987094 596
7.012246 808
7.037398 716
7.06255  1024
7.087701 935
7.112853 1151
7.138005 1293
7.163157 1471
7.188309 1767
7.21346  2039
7.238612 2270
7.263764 2755
7.288916 2483
7.314068 2690
7.33922  2090
7.364371 1611
7.389524 1146
7.414675 586
7.439827 506
7.464979 416
7.49013  314
7.515283 293
7.540434 115
7.565586 179
7.590738 118
7.61589  65
7.641042 113
7.666193 31
7.691345 73
7.716497 41
7.741649 68
7.7668   0
7.791953 34
7.817104 93
7.842256 0
7.867408 116
7.89256  30
7.917712 0
7.942863 0
7.968015 0
7.993167 22
8.018319 54
8.04347  69
8.068623 18
8.093775 54
8.118926 64
8.144078 161
8.16923  128
8.194382 303
8.219534 219
8.244685 329
8.269837 303
8.294989 523
8.320141 495
8.345292 534
8.370444 852
8.395597 868
8.420748 904
8.4459   871
8.471051 843
8.496203 580
8.521356 422
8.546507 175
8.571659 137
8.59681  64
8.621963 48
8.647115 3
8.672266 37
8.697418 7
8.722569 57
8.747722 33
8.772874 0
8.798025 0
8.823177 0
8.848329 12
8.873481 11
8.898633 50
8.923784 30
8.948936 64
8.974088 0
8.99924  0
9.024392 47
9.049543 72
9.074696 4
9.099847 95
9.124999 0
9.150151 39
9.175303 10
9.200455 96
9.225606 66
9.250758 3
9.27591  31
9.301062 36
9.326214 31
9.351365 20
9.376517 98
9.40167  60
9.426821 56
9.451973 71
9.477124 120
9.502276 101
9.527429 86
9.55258  30
9.577732 81
9.602883 47
9.628036 110
9.653188 57
9.678339 92
9.703491 41
9.728642 127
9.753795 12
9.778947 57
9.804098 87
9.82925  21
9.854402 121
9.879554 68
9.904706 73
9.929857 20
9.955009 1
9.980161 26
10.00531 0
