Commander Sample ID
5.0001   105
5.025252 105
5.050404 42
5.075556 124
5.100708 82
5.125859 129
5.151011 36
5.176163 239
5.201315 76
5.226467 208
5.251618 119
5.27677  40
5.301922 111
5.327074 76
5.352226 279
5.377378 101
5.402529 44
5.427681 160
5.452833 48
5.477985 0
5.503137 159
5.528288 109
5.55344  146
5.578592 13
5.603744 0
5.628896 36
5.654047 0
5.679199 94
5.704351 154
5.729503 17
5.754655 37
5.779807 42
5.804958 188
5.83011  41
5.855262 70
5.880414 172
5.905566 20
5.930717 0
5.955869 129
5.981021 32
6.006173 75
6.031325 10
6.056477 53
6.081628 3
6.106781 0
6.131932 0
6.157084 11
6.182236 71
6.207387 16
6.23254  27
6.257691 0
6.282843 112
6.307995 46
6.333147 14
6.358299 15
6.383451 114
6.408602 101
6.433754 0
6.458906 65
6.484058 30
6.50921  121
6.534361 29
6.559513 181
6.584665 155
6.609817 254
6.634969 103
6.66012  123
6.685272 204
6.710424 226
6.735576 318
6.760728 258
6.78588  440
6.811031 392
6.836183 429
6.861335 569
6.886487 607
6.911639 714
6.93679  788
6.961942 986
6.987094 1028
7.012246 1243
7.037398 1443
7.06255  1644
7.087701 1779
7.112853 2349
7.138005 2382
7.163157 3137
7.188309 3701
7.21346  4655
7.238612 5909
7.263764 7201
7.288916 6756
7.314068 4359
7.33922  2081
7.364371 1234
7.389524 720
7.414675 466
7.439827 331
7.464979 230
7.49013  159
7.515283 195
7.540434 158
7.565586 27
7.590738 55
7.61589  72
7.641042 0
7.666193 0
7.691345 27
7.716497 0
7.741649 48
7.7668   92
7.791953 34
7.817104 22
7.842256 162
7.867408 168
7.89256  157
7.917712 264
7.942863 142
7.968015 176
7.993167 196
8.018319 217
8.04347  313
8.068623 386
8.093775 380
8.118926 548
8.144078 615
8.16923  724
8.194382 629
8.219534 856
8.244685 944
8.269837 1162
8.294989 1218
8.320141 1588
8.345292 2045
8.370444 2401
8.395597 3033
8.420748 3321
8.4459   2338
8.471051 1314
8.496203 600
8.521356 406
8.546507 340
8.571659 250
8.59681  202
8.621963 138
8.647115 126
8.672266 8
8.697418 57
8.722569 60
8.747722 20
8.772874 116
8.798025 0
8.823177 0
8.848329 30
8.873481 0
8.898633 0
8.923784 28
8.948936 0
8.974088 0
8.99924  0
9.024392 0
9.049543 0
9.074696 0
9.099847 0
9.124999 0
9.150151 0
9.175303 0
9.200455 0
9.225606 0
9.250758 0
9.27591  0
9.301062 0
9.326214 0
9.351365 0
9.376517 0
9.40167  0
9.426821 0
9.451973 0
9.477124 0
9.502276 0
9.527429 0
9.55258  0
9.577732 0
9.602883 0
9.628036 0
9.653188 0
9.678339 0
9.703491 0
9.728642 0
9.753795 0
9.778947 0
9.804098 0
9.82925  0
9.854402 0
9.879554 0
9.904706 0
9.929857 0
9.955009 27
9.980161 0
10.00531 37
