Commander Sample ID
5.0001   139
5.025252 139
5.050404 0
5.075556 1
5.100708 287
5.125859 192
5.151011 0
5.176163 117
5.201315 49
5.226467 101
5.251618 46
5.27677  155
5.301922 0
5.327074 184
5.352226 0
5.377378 0
5.402529 69
5.427681 33
5.452833 0
5.477985 0
5.503137 81
5.528288 0
5.55344  0
5.578592 0
5.603744 0
5.628896 64
5.654047 36
5.679199 0
5.704351 14
5.729503 137
5.754655 0
5.779807 60
5.804958 0
5.83011  13
5.855262 4
5.880414 0
5.905566 45
5.930717 0
5.955869 0
5.981021 57
6.006173 0
6.031325 0
6.056477 0
6.081628 0
6.106781 23
6.131932 0
6.157084 74
6.182236 0
6.207387 0
6.23254  20
6.257691 0
6.282843 0
6.307995 0
6.333147 25
6.358299 0
6.383451 13
6.408602 70
6.433754 8
6.458906 124
6.484058 0
6.50921  19
6.534361 0
6.559513 0
6.584665 0
6.609817 26
6.634969 0
6.66012  97
6.685272 0
6.710424 0
6.735576 75
6.760728 72
6.78588  0
6.811031 109
6.836183 131
6.861335 193
6.886487 45
6.911639 217
6.93679  136
6.961942 177
6.987094 400
7.012246 337
7.037398 311
7.06255  526
7.087701 486
7.112853 682
7.138005 742
7.163157 1026
7.188309 1170
7.21346  1423
7.238612 1527
7.263764 1862
7.288916 1920
7.314068 1466
7.33922  725
7.364371 545
7.389524 112
7.414675 117
7.439827 40
7.464979 0
7.49013  67
7.515283 0
7.540434 0
7.565586 0
7.590738 0
7.61589  0
7.641042 0
7.666193 0
7.691345 0
7.716497 0
7.741649 0
7.7668   0
7.791953 0
7.817104 0
7.842256 0
7.867408 0
7.89256  0
7.917712 0
7.942863 0
7.968015 0
7.993167 0
8.018319 4
8.04347  0
8.068623 50
8.093775 96
8.118926 91
8.144078 52
8.16923  128
8.194382 104
8.219534 141
8.244685 270
8.269837 298
8.294989 359
8.320141 443
8.345292 621
8.370444 658
8.395597 873
8.420748 940
8.4459   664
8.471051 476
8.496203 274
8.521356 184
8.546507 160
8.571659 38
8.59681  14
8.621963 0
8.647115 0
8.672266 103
8.697418 62
8.722569 41
8.747722 63
8.772874 6
8.798025 116
8.823177 41
8.848329 43
8.873481 26
8.898633 110
8.923784 28
8.948936 48
8.974088 170
8.99924  84
9.024392 54
9.049543 52
9.074696 135
9.099847 104
9.124999 99
9.150151 72
9.175303 54
9.200455 39
9.225606 96
9.250758 17
9.27591  130
9.301062 56
9.326214 46
9.351365 68
9.376517 85
9.40167  95
9.426821 4
9.451973 139
9.477124 162
9.502276 33
9.527429 154
9.55258  53
9.577732 112
9.602883 74
9.628036 93
9.653188 80
9.678339 140
9.703491 76
9.728642 38
9.753795 86
9.778947 34
9.804098 28
9.82925  35
9.854402 38
9.879554 32
9.904706 40
9.929857 19
9.955009 0
9.980161 48
10.00531 0
