Commander Sample ID
5.0001   82
5.025252 82
5.050404 238
5.075556 85
5.100708 0
5.125859 174
5.151011 37
5.176163 0
5.201315 22
5.226467 0
5.251618 0
5.27677  0
5.301922 102
5.327074 0
5.352226 87
5.377378 102
5.402529 123
5.427681 0
5.452833 76
5.477985 0
5.503137 33
5.528288 64
5.55344  0
5.578592 0
5.603744 64
5.628896 208
5.654047 203
5.679199 127
5.704351 0
5.729503 191
5.754655 34
5.779807 6
5.804958 0
5.83011  0
5.855262 7
5.880414 36
5.905566 58
5.930717 0
5.955869 64
5.981021 0
6.006173 152
6.031325 0
6.056477 55
6.081628 55
6.106781 0
6.131932 57
6.157084 0
6.182236 0
6.207387 0
6.23254  0
6.257691 116
6.282843 4
6.307995 56
6.333147 25
6.358299 0
6.383451 0
6.408602 0
6.433754 1
6.458906 0
6.484058 0
6.50921  94
6.534361 10
6.559513 35
6.584665 0
6.609817 26
6.634969 0
6.66012  111
6.685272 43
6.710424 6
6.735576 15
6.760728 119
6.78588  0
6.811031 101
6.836183 0
6.861335 203
6.886487 87
6.911639 195
6.93679  139
6.961942 304
6.987094 345
7.012246 242
7.037398 398
7.06255  417
7.087701 661
7.112853 522
7.138005 920
7.163157 1058
7.188309 1456
7.21346  1641
7.238612 1850
7.263764 1687
7.288916 803
7.314068 464
7.33922  345
7.364371 160
7.389524 138
7.414675 114
7.439827 79
7.464979 34
7.49013  66
7.515283 0
7.540434 0
7.565586 0
7.590738 10
7.61589  17
7.641042 0
7.666193 0
7.691345 0
7.716497 14
7.741649 0
7.7668   0
7.791953 11
7.817104 0
7.842256 0
7.867408 0
7.89256  0
7.917712 0
7.942863 18
7.968015 99
7.993167 57
8.018319 0
8.04347  169
8.068623 83
8.093775 224
8.118926 56
8.144078 250
8.16923  158
8.194382 181
8.219534 360
8.244685 290
8.269837 491
8.294989 367
8.320141 605
8.345292 817
8.370444 827
8.395597 1016
8.420748 543
8.4459   335
8.471051 226
8.496203 124
8.521356 231
8.546507 47
8.571659 117
8.59681  97
8.621963 72
8.647115 50
8.672266 53
8.697418 105
8.722569 2
8.747722 142
8.772874 91
8.798025 82
8.823177 32
8.848329 41
8.873481 74
8.898633 0
8.923784 4
8.948936 0
8.974088 39
8.99924  10
9.024392 0
9.049543 0
9.074696 0
9.099847 0
9.124999 0
9.150151 0
9.175303 0
9.200455 0
9.225606 0
9.250758 0
9.27591  0
9.301062 0
9.326214 0
9.351365 0
9.376517 0
9.40167  0
9.426821 0
9.451973 0
9.477124 0
9.502276 0
9.527429 0
9.55258  0
9.577732 0
9.602883 0
9.628036 0
9.653188 0
9.678339 0
9.703491 0
9.728642 0
9.753795 0
9.778947 10
9.804098 0
9.82925  1
9.854402 0
9.879554 16
9.904706 0
9.929857 0
9.955009 62
9.980161 0
10.00531 27
