Commander Sample ID
5.0001   25
5.025252 25
5.050404 0
5.075556 12
5.100708 45
5.125859 0
5.151011 52
5.176163 12
5.201315 3
5.226467 0
5.251618 33
5.27677  0
5.301922 35
5.327074 0
5.352226 18
5.377378 0
5.402529 1
5.427681 26
5.452833 0
5.477985 0
5.503137 0
5.528288 17
5.55344  0
5.578592 0
5.603744 19
5.628896 0
5.654047 6
5.679199 0
5.704351 8
5.729503 12
5.754655 10
5.779807 3
5.804958 0
5.83011  0
5.855262 0
5.880414 0
5.905566 0
5.930717 0
5.955869 14
5.981021 0
6.006173 0
6.031325 3
6.056477 12
6.081628 0
6.106781 0
6.131932 0
6.157084 38
6.182236 16
6.207387 0
6.23254  19
6.257691 0
6.282843 0
6.307995 13
6.333147 71
6.358299 0
6.383451 22
6.408602 26
6.433754 0
6.458906 13
6.484058 29
6.50921  50
6.534361 11
6.559513 20
6.584665 30
6.609817 37
6.634969 20
6.66012  4
6.685272 84
6.710424 36
6.735576 64
6.760728 35
6.78588  97
6.811031 40
6.836183 119
6.861335 83
6.886487 86
6.911639 136
6.93679  156
6.961942 201
6.987094 234
7.012246 233
7.037398 279
7.06255  424
7.087701 475
7.112853 717
7.138005 955
7.163157 1394
7.188309 2029
7.21346  3846
7.238612 5888
7.263764 6319
7.288916 5073
7.314068 2042
7.33922  491
7.364371 229
7.389524 170
7.414675 116
7.439827 136
7.464979 32
7.49013  59
7.515283 70
7.540434 15
7.565586 60
7.590738 36
7.61589  37
7.641042 63
7.666193 83
7.691345 11
7.716497 66
7.741649 9
7.7668   44
7.791953 30
7.817104 0
7.842256 70
7.867408 8
7.89256  44
7.917712 4
7.942863 46
7.968015 11
7.993167 61
8.018319 21
8.04347  39
8.068623 64
8.093775 83
8.118926 35
8.144078 78
8.16923  94
8.194382 73
8.219534 158
8.244685 226
8.269837 286
8.294989 509
8.320141 651
8.345292 960
8.370444 1400
8.395597 1533
8.420748 1437
8.4459   739
8.471051 133
8.496203 163
8.521356 162
8.546507 1
8.571659 147
8.59681  27
8.621963 7
8.647115 80
8.672266 17
8.697418 27
8.722569 70
8.747722 21
8.772874 73
8.798025 21
8.823177 93
8.848329 15
8.873481 86
8.898633 46
8.923784 14
8.948936 33
8.974088 74
8.99924  48
9.024392 18
9.049543 84
9.074696 43
9.099847 25
9.124999 56
9.150151 18
9.175303 62
9.200455 6
9.225606 11
9.250758 43
9.27591  0
9.301062 64
9.326214 57
9.351365 3
9.376517 44
9.40167  5
9.426821 72
9.451973 5
9.477124 41
9.502276 25
9.527429 32
9.55258  24
9.577732 29
9.602883 27
9.628036 17
9.653188 50
9.678339 0
9.703491 58
9.728642 6
9.753795 56
9.778947 26
9.804098 15
9.82925  22
9.854402 98
9.879554 73
9.904706 29
9.929857 0
9.955009 6
9.980161 7
10.00531 29
