Commander Sample ID
5.0001   36
5.025252 36
5.050404 13
5.075556 33
5.100708 0
5.125859 11
5.151011 0
5.176163 38
5.201315 0
5.226467 7
5.251618 0
5.27677  17
5.301922 0
5.327074 20
5.352226 0
5.377378 0
5.402529 0
5.427681 0
5.452833 20
5.477985 0
5.503137 0
5.528288 0
5.55344  0
5.578592 0
5.603744 0
5.628896 11
5.654047 0
5.679199 0
5.704351 0
5.729503 0
5.754655 0
5.779807 0
5.804958 0
5.83011  0
5.855262 0
5.880414 0
5.905566 3
5.930717 0
5.955869 7
5.981021 0
6.006173 0
6.031325 0
6.056477 0
6.081628 3
6.106781 0
6.131932 0
6.157084 37
6.182236 0
6.207387 0
6.23254  24
6.257691 0
6.282843 11
6.307995 0
6.333147 31
6.358299 17
6.383451 29
6.408602 9
6.433754 13
6.458906 0
6.484058 32
6.50921  15
6.534361 56
6.559513 7
6.584665 21
6.609817 77
6.634969 4
6.66012  109
6.685272 61
6.710424 69
6.735576 141
6.760728 109
6.78588  163
6.811031 207
6.836183 178
6.861335 156
6.886487 226
6.911639 265
6.93679  276
6.961942 312
6.987094 374
7.012246 452
7.037398 505
7.06255  548
7.087701 737
7.112853 801
7.138005 1099
7.163157 1307
7.188309 1707
7.21346  2206
7.238612 2368
7.263764 2185
7.288916 1911
7.314068 989
7.33922  464
7.364371 341
7.389524 269
7.414675 157
7.439827 156
7.464979 141
7.49013  135
7.515283 79
7.540434 45
7.565586 72
7.590738 77
7.61589  77
7.641042 30
7.666193 20
7.691345 93
7.716497 82
7.741649 77
7.7668   0
7.791953 8
7.817104 6
7.842256 0
7.867408 11
7.89256  6
7.917712 0
7.942863 0
7.968015 43
7.993167 13
8.018319 18
8.04347  35
8.068623 36
8.093775 61
8.118926 49
8.144078 58
8.16923  110
8.194382 111
8.219534 192
8.244685 236
8.269837 269
8.294989 342
8.320141 551
8.345292 654
8.370444 790
8.395597 755
8.420748 669
8.4459   307
8.471051 175
8.496203 70
8.521356 100
8.546507 77
8.571659 23
8.59681  40
8.621963 30
8.647115 33
8.672266 33
8.697418 63
8.722569 0
8.747722 51
8.772874 17
8.798025 15
8.823177 28
8.848329 8
8.873481 9
8.898633 53
8.923784 49
8.948936 27
8.974088 63
8.99924  14
9.024392 18
9.049543 35
9.074696 10
9.099847 54
9.124999 44
9.150151 8
9.175303 48
9.200455 56
9.225606 70
9.250758 23
9.27591  57
9.301062 19
9.326214 62
9.351365 11
9.376517 45
9.40167  49
9.426821 30
9.451973 45
9.477124 19
9.502276 63
9.527429 16
9.55258  57
9.577732 27
9.602883 53
9.628036 76
9.653188 15
9.678339 79
9.703491 28
9.728642 68
9.753795 53
9.778947 22
9.804098 55
9.82925  86
9.854402 8
9.879554 42
9.904706 45
9.929857 47
9.955009 67
9.980161 20
10.00531 80
