Commander Sample ID
5.0001   47
5.025252 47
5.050404 0
5.075556 92
5.100708 21
5.125859 18
5.151011 11
5.176163 41
5.201315 30
5.226467 5
5.251618 45
5.27677  0
5.301922 83
5.327074 25
5.352226 114
5.377378 0
5.402529 0
5.427681 0
5.452833 0
5.477985 0
5.503137 0
5.528288 3
5.55344  82
5.578592 65
5.603744 0
5.628896 0
5.654047 0
5.679199 0
5.704351 36
5.729503 0
5.754655 0
5.779807 0
5.804958 0
5.83011  0
5.855262 0
5.880414 0
5.905566 0
5.930717 0
5.955869 0
5.981021 0
6.006173 30
6.031325 0
6.056477 0
6.081628 0
6.106781 0
6.131932 0
6.157084 32
6.182236 0
6.207387 0
6.23254  0
6.257691 0
6.282843 0
6.307995 0
6.333147 5
6.358299 72
6.383451 0
6.408602 0
6.433754 46
6.458906 84
6.484058 44
6.50921  71
6.534361 78
6.559513 116
6.584665 87
6.609817 0
6.634969 208
6.66012  99
6.685272 186
6.710424 113
6.735576 306
6.760728 387
6.78588  310
6.811031 452
6.836183 311
6.861335 493
6.886487 630
6.911639 555
6.93679  734
6.961942 980
6.987094 972
7.012246 1249
7.037398 1330
7.06255  1716
7.087701 1937
7.112853 2693
7.138005 2798
7.163157 3521
7.188309 3602
7.21346  3802
7.238612 3794
7.263764 3236
7.288916 2060
7.314068 795
7.33922  435
7.364371 78
7.389524 111
7.414675 62
7.439827 16
7.464979 0
7.49013  38
7.515283 30
7.540434 0
7.565586 37
7.590738 2
7.61589  2
7.641042 0
7.666193 0
7.691345 0
7.716497 37
7.741649 0
7.7668   47
7.791953 29
7.817104 0
7.842256 0
7.867408 81
7.89256  114
7.917712 32
7.942863 19
7.968015 177
7.993167 222
8.018319 250
8.04347  169
8.068623 203
8.093775 345
8.118926 352
8.144078 406
8.16923  581
8.194382 661
8.219534 633
8.244685 973
8.269837 991
8.294989 1370
8.320141 1636
8.345292 1577
8.370444 1681
8.395597 1415
8.420748 1098
8.4459   436
8.471051 128
8.496203 102
8.521356 3
8.546507 117
8.571659 58
8.59681  11
8.621963 37
8.647115 46
8.672266 49
8.697418 155
8.722569 19
8.747722 165
8.772874 71
8.798025 89
8.823177 23
8.848329 48
8.873481 128
8.898633 86
8.923784 78
8.948936 51
8.974088 67
8.99924  124
9.024392 39
9.049543 17
9.074696 18
9.099847 104
9.124999 21
9.150151 117
9.175303 69
9.200455 34
9.225606 37
9.250758 92
9.27591  128
9.301062 39
9.326214 47
9.351365 50
9.376517 52
9.40167  74
9.426821 57
9.451973 68
9.477124 20
9.502276 88
9.527429 2
9.55258  87
9.577732 39
9.602883 146
9.628036 133
9.653188 61
9.678339 24
9.703491 62
9.728642 58
9.753795 16
9.778947 128
9.804098 16
9.82925  28
9.854402 46
9.879554 70
9.904706 7
9.929857 41
9.955009 23
9.980161 17
10.00531 8
