Commander Sample ID
5.0001   52
5.025252 52
5.050404 7
5.075556 0
5.100708 14
5.125859 0
5.151011 0
5.176163 0
5.201315 39
5.226467 0
5.251618 47
5.27677  0
5.301922 0
5.327074 0
5.352226 0
5.377378 0
5.402529 0
5.427681 3
5.452833 0
5.477985 0
5.503137 0
5.528288 0
5.55344  0
5.578592 0
5.603744 0
5.628896 37
5.654047 0
5.679199 0
5.704351 0
5.729503 0
5.754655 0
5.779807 10
5.804958 38
5.83011  0
5.855262 0
5.880414 0
5.905566 0
5.930717 32
5.955869 0
5.981021 62
6.006173 55
6.031325 0
6.056477 0
6.081628 0
6.106781 0
6.131932 4
6.157084 0
6.182236 0
6.207387 0
6.23254  24
6.257691 39
6.282843 0
6.307995 0
6.333147 0
6.358299 39
6.383451 0
6.408602 0
6.433754 2
6.458906 0
6.484058 31
6.50921  6
6.534361 35
6.559513 0
6.584665 42
6.609817 0
6.634969 0
6.66012  2
6.685272 20
6.710424 20
6.735576 2
6.760728 67
6.78588  0
6.811031 0
6.836183 0
6.861335 5
6.886487 19
6.911639 25
6.93679  37
6.961942 13
6.987094 23
7.012246 39
7.037398 67
7.06255  62
7.087701 33
7.112853 94
7.138005 81
7.163157 109
7.188309 174
7.21346  180
7.238612 234
7.263764 276
7.288916 292
7.314068 160
7.33922  73
7.364371 16
7.389524 12
7.414675 62
7.439827 34
7.464979 0
7.49013  0
7.515283 20
7.540434 16
7.565586 0
7.590738 101
7.61589  0
7.641042 26
7.666193 0
7.691345 29
7.716497 11
7.741649 33
7.7668   0
7.791953 0
7.817104 0
7.842256 28
7.867408 0
7.89256  0
7.917712 5
7.942863 15
7.968015 0
7.993167 0
8.018319 28
8.04347  18
8.068623 0
8.093775 0
8.118926 0
8.144078 0
8.16923  46
8.194382 3
8.219534 21
8.244685 15
8.269837 27
8.294989 19
8.320141 28
8.345292 50
8.370444 59
8.395597 96
8.420748 114
8.4459   8
8.471051 50
8.496203 1
8.521356 33
8.546507 47
8.571659 0
8.59681  22
8.621963 13
8.647115 9
8.672266 0
8.697418 12
8.722569 0
8.747722 27
8.772874 22
8.798025 0
8.823177 21
8.848329 36
8.873481 37
8.898633 2
8.923784 0
8.948936 0
8.974088 2
8.99924  35
9.024392 0
9.049543 18
9.074696 11
9.099847 36
9.124999 5
9.150151 0
9.175303 14
9.200455 22
9.225606 0
9.250758 11
9.27591  7
9.301062 4
9.326214 0
9.351365 4
9.376517 0
9.40167  8
9.426821 17
9.451973 0
9.477124 3
9.502276 12
9.527429 21
9.55258  0
9.577732 0
9.602883 18
9.628036 14
9.653188 0
9.678339 38
9.703491 0
9.728642 0
9.753795 0
9.778947 0
9.804098 55
9.82925  0
9.854402 0
9.879554 0
9.904706 0
9.929857 0
9.955009 33
9.980161 13
10.00531 7
