Commander Sample ID
5.0001   0
5.025252 0
5.050404 12
5.075556 0
5.100708 37
5.125859 38
5.151011 43
5.176163 29
5.201315 29
5.226467 0
5.251618 18
5.27677  12
5.301922 0
5.327074 48
5.352226 27
5.377378 0
5.402529 18
5.427681 0
5.452833 24
5.477985 0
5.503137 0
5.528288 0
5.55344  13
5.578592 0
5.603744 0
5.628896 24
5.654047 0
5.679199 5
5.704351 0
5.729503 0
5.754655 16
5.779807 18
5.804958 3
5.83011  0
5.855262 37
5.880414 0
5.905566 0
5.930717 48
5.955869 0
5.981021 0
6.006173 0
6.031325 32
6.056477 2
6.081628 6
6.106781 0
6.131932 0
6.157084 3
6.182236 0
6.207387 0
6.23254  4
6.257691 0
6.282843 14
6.307995 0
6.333147 6
6.358299 0
6.383451 16
6.408602 0
6.433754 0
6.458906 0
6.484058 34
6.50921  28
6.534361 9
6.559513 56
6.584665 2
6.609817 1
6.634969 79
6.66012  34
6.685272 34
6.710424 62
6.735576 18
6.760728 100
6.78588  52
6.811031 33
6.836183 67
6.861335 42
6.886487 68
6.911639 110
6.93679  4
6.961942 127
6.987094 114
7.012246 81
7.037398 136
7.06255  68
7.087701 97
7.112853 149
7.138005 116
7.163157 140
7.188309 133
7.21346  267
7.238612 310
7.263764 265
7.288916 407
7.314068 464
7.33922  441
7.364371 360
7.389524 205
7.414675 176
7.439827 95
7.464979 67
7.49013  51
7.515283 64
7.540434 48
7.565586 95
7.590738 27
7.61589  24
7.641042 11
7.666193 26
7.691345 44
7.716497 24
7.741649 46
7.7668   1
7.791953 16
7.817104 5
7.842256 0
7.867408 8
7.89256  0
7.917712 16
7.942863 0
7.968015 39
7.993167 15
8.018319 10
8.04347  0
8.068623 7
8.093775 11
8.118926 10
8.144078 11
8.16923  4
8.194382 59
8.219534 4
8.244685 17
8.269837 7
8.294989 5
8.320141 103
8.345292 41
8.370444 90
8.395597 54
8.420748 90
8.4459   152
8.471051 147
8.496203 81
8.521356 96
8.546507 68
8.571659 14
8.59681  14
8.621963 61
8.647115 0
8.672266 22
8.697418 34
8.722569 0
8.747722 5
8.772874 0
8.798025 12
8.823177 25
8.848329 13
8.873481 38
8.898633 0
8.923784 23
8.948936 15
8.974088 43
8.99924  0
9.024392 0
9.049543 24
9.074696 0
9.099847 0
9.124999 44
9.150151 0
9.175303 17
9.200455 19
9.225606 0
9.250758 10
9.27591  39
9.301062 0
9.326214 26
9.351365 35
9.376517 18
9.40167  27
9.426821 25
9.451973 0
9.477124 0
9.502276 24
9.527429 57
9.55258  43
9.577732 3
9.602883 6
9.628036 33
9.653188 61
9.678339 2
9.703491 0
9.728642 17
9.753795 63
9.778947 8
9.804098 2
9.82925  17
9.854402 7
9.879554 35
9.904706 0
9.929857 16
9.955009 17
9.980161 0
10.00531 44
