Commander Sample ID
5.0001   2
5.025252 2
5.050404 0
5.075556 0
5.100708 57
5.125859 23
5.151011 12
5.176163 0
5.201315 35
5.226467 3
5.251618 25
5.27677  0
5.301922 0
5.327074 12
5.352226 26
5.377378 16
5.402529 61
5.427681 35
5.452833 22
5.477985 1
5.503137 0
5.528288 9
5.55344  18
5.578592 3
5.603744 47
5.628896 21
5.654047 40
5.679199 8
5.704351 16
5.729503 0
5.754655 21
5.779807 11
5.804958 30
5.83011  77
5.855262 38
5.880414 30
5.905566 35
5.930717 36
5.955869 34
5.981021 18
6.006173 34
6.031325 25
6.056477 40
6.081628 44
6.106781 56
6.131932 64
6.157084 11
6.182236 76
6.207387 18
6.23254  30
6.257691 29
6.282843 37
6.307995 47
6.333147 21
6.358299 110
6.383451 38
6.408602 68
6.433754 61
6.458906 51
6.484058 81
6.50921  101
6.534361 63
6.559513 121
6.584665 81
6.609817 57
6.634969 112
6.66012  124
6.685272 107
6.710424 161
6.735576 143
6.760728 144
6.78588  189
6.811031 153
6.836183 188
6.861335 172
6.886487 222
6.911639 185
6.93679  173
6.961942 214
6.987094 230
7.012246 170
7.037398 247
7.06255  247
7.087701 242
7.112853 245
7.138005 309
7.163157 276
7.188309 322
7.21346  321
7.238612 311
7.263764 311
7.288916 293
7.314068 269
7.33922  170
7.364371 211
7.389524 186
7.414675 133
7.439827 129
7.464979 132
7.49013  108
7.515283 47
7.540434 105
7.565586 49
7.590738 98
7.61589  41
7.641042 47
7.666193 25
7.691345 73
7.716497 25
7.741649 38
7.7668   40
7.791953 9
7.817104 40
7.842256 16
7.867408 37
7.89256  12
7.917712 21
7.942863 3
7.968015 28
7.993167 5
8.018319 51
8.04347  31
8.068623 0
8.093775 8
8.118926 67
8.144078 21
8.16923  8
8.194382 0
8.219534 31
8.244685 17
8.269837 23
8.294989 47
8.320141 23
8.345292 20
8.370444 0
8.395597 27
8.420748 19
8.4459   31
8.471051 14
8.496203 10
8.521356 48
8.546507 32
8.571659 21
8.59681  20
8.621963 35
8.647115 29
8.672266 4
8.697418 0
8.722569 6
8.747722 0
8.772874 7
8.798025 7
8.823177 0
8.848329 0
8.873481 33
8.898633 8
8.923784 2
8.948936 0
8.974088 0
8.99924  0
9.024392 39
9.049543 5
9.074696 0
9.099847 0
9.124999 21
9.150151 15
9.175303 18
9.200455 17
9.225606 17
9.250758 0
9.27591  11
9.301062 0
9.326214 0
9.351365 0
9.376517 0
9.40167  0
9.426821 12
9.451973 0
9.477124 0
9.502276 17
9.527429 0
9.55258  0
9.577732 0
9.602883 27
9.628036 18
9.653188 9
9.678339 0
9.703491 0
9.728642 5
9.753795 0
9.778947 0
9.804098 0
9.82925  0
9.854402 24
9.879554 0
9.904706 0
9.929857 56
9.955009 0
9.980161 6
10.00531 0
