Commander Sample ID
5.0001   40
5.025252 40
5.050404 0
5.075556 0
5.100708 65
5.125859 0
5.151011 0
5.176163 22
5.201315 27
5.226467 0
5.251618 0
5.27677  0
5.301922 0
5.327074 8
5.352226 0
5.377378 0
5.402529 0
5.427681 0
5.452833 0
5.477985 0
5.503137 0
5.528288 0
5.55344  44
5.578592 0
5.603744 0
5.628896 0
5.654047 0
5.679199 0
5.704351 0
5.729503 0
5.754655 0
5.779807 0
5.804958 0
5.83011  0
5.855262 0
5.880414 0
5.905566 0
5.930717 0
5.955869 11
5.981021 0
6.006173 0
6.031325 0
6.056477 0
6.081628 0
6.106781 0
6.131932 0
6.157084 0
6.182236 0
6.207387 0
6.23254  0
6.257691 0
6.282843 0
6.307995 0
6.333147 0
6.358299 0
6.383451 32
6.408602 29
6.433754 47
6.458906 0
6.484058 10
6.50921  19
6.534361 16
6.559513 72
6.584665 48
6.609817 28
6.634969 44
6.66012  112
6.685272 61
6.710424 103
6.735576 104
6.760728 127
6.78588  180
6.811031 154
6.836183 208
6.861335 203
6.886487 257
6.911639 279
6.93679  380
6.961942 387
6.987094 536
7.012246 558
7.037398 766
7.06255  698
7.087701 1005
7.112853 1261
7.138005 1671
7.163157 2181
7.188309 2956
7.21346  4445
7.238612 5955
7.263764 7049
7.288916 6387
7.314068 5567
7.33922  2762
7.364371 870
7.389524 369
7.414675 266
7.439827 195
7.464979 121
7.49013  150
7.515283 101
7.540434 105
7.565586 107
7.590738 73
7.61589  90
7.641042 55
7.666193 100
7.691345 45
7.716497 54
7.741649 59
7.7668   65
7.791953 41
7.817104 18
7.842256 128
7.867408 41
7.89256  25
7.917712 85
7.942863 44
7.968015 33
7.993167 138
8.018319 71
8.04347  60
8.068623 118
8.093775 95
8.118926 111
8.144078 186
8.16923  170
8.194382 301
8.219534 273
8.244685 407
8.269837 513
8.294989 718
8.320141 1112
8.345292 1453
8.370444 2002
8.395597 2459
8.420748 2301
8.4459   2038
8.471051 1151
8.496203 491
8.521356 150
8.546507 41
8.571659 91
8.59681  54
8.621963 16
8.647115 0
8.672266 22
8.697418 0
8.722569 0
8.747722 19
8.772874 22
8.798025 50
8.823177 2
8.848329 0
8.873481 0
8.898633 40
8.923784 31
8.948936 2
8.974088 0
8.99924  13
9.024392 0
9.049543 0
9.074696 0
9.099847 0
9.124999 0
9.150151 0
9.175303 17
9.200455 0
9.225606 59
9.250758 0
9.27591  0
9.301062 0
9.326214 0
9.351365 0
9.376517 0
9.40167  0
9.426821 0
9.451973 0
9.477124 0
9.502276 0
9.527429 21
9.55258  2
9.577732 37
9.602883 3
9.628036 0
9.653188 15
9.678339 0
9.703491 38
9.728642 4
9.753795 0
9.778947 25
9.804098 19
9.82925  3
9.854402 22
9.879554 1
9.904706 0
9.929857 45
9.955009 1
9.980161 58
10.00531 0
