Commander Sample ID
5.0001   1
5.025252 1
5.050404 11
5.075556 19
5.100708 8
5.125859 16
5.151011 0
5.176163 43
5.201315 13
5.226467 0
5.251618 0
5.27677  27
5.301922 0
5.327074 35
5.352226 0
5.377378 18
5.402529 0
5.427681 34
5.452833 1
5.477985 0
5.503137 0
5.528288 0
5.55344  0
5.578592 24
5.603744 0
5.628896 9
5.654047 0
5.679199 14
5.704351 0
5.729503 0
5.754655 0
5.779807 0
5.804958 7
5.83011  0
5.855262 20
5.880414 0
5.905566 0
5.930717 36
5.955869 15
5.981021 14
6.006173 13
6.031325 16
6.056477 20
6.081628 37
6.106781 8
6.131932 0
6.157084 13
6.182236 41
6.207387 8
6.23254  48
6.257691 37
6.282843 7
6.307995 26
6.333147 13
6.358299 24
6.383451 19
6.408602 21
6.433754 0
6.458906 6
6.484058 24
6.50921  7
6.534361 0
6.559513 18
6.584665 5
6.609817 51
6.634969 60
6.66012  6
6.685272 41
6.710424 18
6.735576 70
6.760728 17
6.78588  58
6.811031 44
6.836183 48
6.861335 55
6.886487 71
6.911639 125
6.93679  50
6.961942 112
6.987094 91
7.012246 143
7.037398 200
7.06255  204
7.087701 314
7.112853 351
7.138005 475
7.163157 721
7.188309 1118
7.21346  1660
7.238612 2264
7.263764 2221
7.288916 1562
7.314068 432
7.33922  234
7.364371 81
7.389524 88
7.414675 118
7.439827 59
7.464979 69
7.49013  1
7.515283 53
7.540434 55
7.565586 17
7.590738 69
7.61589  48
7.641042 27
7.666193 60
7.691345 0
7.716497 27
7.741649 17
7.7668   0
7.791953 46
7.817104 0
7.842256 74
7.867408 0
7.89256  29
7.917712 0
7.942863 41
7.968015 13
7.993167 58
8.018319 43
8.04347  74
8.068623 5
8.093775 0
8.118926 32
8.144078 58
8.16923  71
8.194382 125
8.219534 104
8.244685 182
8.269837 183
8.294989 273
8.320141 456
8.345292 634
8.370444 903
8.395597 851
8.420748 748
8.4459   246
8.471051 53
8.496203 48
8.521356 47
8.546507 0
8.571659 49
8.59681  18
8.621963 32
8.647115 12
8.672266 13
8.697418 0
8.722569 23
8.747722 0
8.772874 50
8.798025 0
8.823177 3
8.848329 0
8.873481 6
8.898633 9
8.923784 0
8.948936 20
8.974088 9
8.99924  2
9.024392 44
9.049543 0
9.074696 10
9.099847 5
9.124999 26
9.150151 0
9.175303 28
9.200455 7
9.225606 0
9.250758 7
9.27591  1
9.301062 0
9.326214 13
9.351365 19
9.376517 6
9.40167  7
9.426821 0
9.451973 0
9.477124 9
9.502276 0
9.527429 0
9.55258  16
9.577732 6
9.602883 0
9.628036 18
9.653188 42
9.678339 5
9.703491 9
9.728642 18
9.753795 0
9.778947 0
9.804098 0
9.82925  11
9.854402 0
9.879554 30
9.904706 0
9.929857 24
9.955009 0
9.980161 6
10.00531 8
