Commander Sample ID
5.0001   56
5.025252 56
5.050404 67
5.075556 50
5.100708 2
5.125859 44
5.151011 34
5.176163 16
5.201315 39
5.226467 17
5.251618 2
5.27677  0
5.301922 56
5.327074 46
5.352226 43
5.377378 65
5.402529 72
5.427681 29
5.452833 86
5.477985 28
5.503137 24
5.528288 52
5.55344  0
5.578592 57
5.603744 25
5.628896 36
5.654047 15
5.679199 32
5.704351 17
5.729503 34
5.754655 21
5.779807 36
5.804958 31
5.83011  38
5.855262 11
5.880414 26
5.905566 17
5.930717 65
5.955869 39
5.981021 23
6.006173 34
6.031325 24
6.056477 15
6.081628 33
6.106781 0
6.131932 1
6.157084 27
6.182236 23
6.207387 88
6.23254  29
6.257691 31
6.282843 45
6.307995 25
6.333147 37
6.358299 67
6.383451 46
6.408602 66
6.433754 78
6.458906 48
6.484058 107
6.50921  113
6.534361 163
6.559513 128
6.584665 139
6.609817 192
6.634969 152
6.66012  284
6.685272 201
6.710424 196
6.735576 273
6.760728 335
6.78588  292
6.811031 364
6.836183 475
6.861335 488
6.886487 566
6.911639 626
6.93679  722
6.961942 801
6.987094 977
7.012246 983
7.037398 1123
7.06255  1298
7.087701 1625
7.112853 1842
7.138005 2385
7.163157 3279
7.188309 5220
7.21346  6918
7.238612 7139
7.263764 6746
7.288916 5042
7.314068 2586
7.33922  795
7.364371 259
7.389524 177
7.414675 134
7.439827 44
7.464979 50
7.49013  52
7.515283 0
7.540434 0
7.565586 0
7.590738 0
7.61589  0
7.641042 0
7.666193 0
7.691345 18
7.716497 0
7.741649 0
7.7668   0
7.791953 0
7.817104 0
7.842256 15
7.867408 0
7.89256  51
7.917712 29
7.942863 53
7.968015 58
7.993167 141
8.018319 100
8.04347  172
8.068623 188
8.093775 224
8.118926 231
8.144078 394
8.16923  348
8.194382 452
8.219534 543
8.244685 699
8.269837 834
8.294989 1166
8.320141 1551
8.345292 2023
8.370444 2089
8.395597 2419
8.420748 2051
8.4459   1294
8.471051 390
8.496203 157
8.521356 47
8.546507 43
8.571659 47
8.59681  39
8.621963 97
8.647115 58
8.672266 1
8.697418 20
8.722569 59
8.747722 45
8.772874 45
8.798025 61
8.823177 52
8.848329 19
8.873481 38
8.898633 23
8.923784 33
8.948936 24
8.974088 34
8.99924  58
9.024392 5
9.049543 58
9.074696 19
9.099847 70
9.124999 0
9.150151 65
9.175303 11
9.200455 59
9.225606 17
9.250758 40
9.27591  69
9.301062 1
9.326214 51
9.351365 31
9.376517 43
9.40167  7
9.426821 18
9.451973 40
9.477124 30
9.502276 45
9.527429 18
9.55258  12
9.577732 44
9.602883 19
9.628036 42
9.653188 33
9.678339 9
9.703491 14
9.728642 33
9.753795 48
9.778947 32
9.804098 47
9.82925  13
9.854402 64
9.879554 8
9.904706 10
9.929857 0
9.955009 56
9.980161 49
10.00531 34
