Commander Sample ID
5.0001   1253
5.025252 1307
5.050404 1288
5.075556 1353
5.100708 1268
5.125859 1287
5.151011 1256
5.176163 1247
5.201315 1280
5.226467 1235
5.251618 1237
5.27677  1231
5.301922 1180
5.327074 1178
5.352226 1140
5.377378 1169
5.402529 1143
5.427681 1208
5.452833 1169
5.477985 1115
5.503137 1149
5.528288 1196
5.55344  1172
5.578592 1124
5.603744 1175
5.628896 1086
5.654047 1122
5.679199 1134
5.704351 1084
5.729503 1133
5.754655 1108
5.779807 1119
5.804958 1106
5.83011  1092
5.855262 1105
5.880414 1048
5.905566 1063
5.930717 1082
5.955869 1036
5.981021 1005
6.006173 1065
6.031325 1050
6.056477 1054
6.081628 1050
6.106781 1053
6.131932 1069
6.157084 1052
6.182236 1033
6.207387 1040
6.23254  1034
6.257691 1088
6.282843 1014
6.307995 1117
6.333147 1004
6.358299 1045
6.383451 1025
6.408602 1058
6.433754 1041
6.458906 1061
6.484058 1054
6.50921  1110
6.534361 1082
6.559513 1076
6.584665 1064
6.609817 1091
6.634969 1135
6.66012  1146
6.685272 1173
6.710424 1139
6.735576 1186
6.760728 1147
6.78588  1213
6.811031 1218
6.836183 1316
6.861335 1379
6.886487 1386
6.911639 1459
6.93679  1480
6.961942 1638
6.987094 1736
7.012246 1826
7.037398 1963
7.06255  2156
7.087701 2405
7.112853 2740
7.138005 3230
7.163157 3933
7.188309 4813
7.21346  6030
7.238612 7140
7.263764 7032
7.288916 6687
7.314068 6659
7.33922  5466
7.364371 3430
7.389524 2331
7.414675 1891
7.439827 1836
7.464979 1852
7.49013  1603
7.515283 1287
7.540434 1061
7.565586 1043
7.590738 1044
7.61589  1032
7.641042 1016
7.666193 902
7.691345 963
7.716497 934
7.741649 940
7.7668   954
7.791953 955
7.817104 937
7.842256 910
7.867408 953
7.89256  929
7.917712 985
7.942863 961
7.968015 1006
7.993167 954
8.018319 978
8.04347  1035
8.068623 1011
8.093775 1039
8.118926 1079
8.144078 1142
8.16923  1189
8.194382 1267
8.219534 1332
8.244685 1501
8.269837 1754
8.294989 2063
8.320141 2437
8.345292 2768
8.370444 2992
8.395597 3118
8.420748 3313
8.4459   3408
8.471051 2856
8.496203 1974
8.521356 1382
8.546507 1014
8.571659 939
8.59681  982
8.621963 954
8.647115 961
8.672266 831
8.697418 812
8.722569 751
8.747722 732
8.772874 772
8.798025 745
8.823177 792
8.848329 750
8.873481 698
8.898633 719
8.923784 736
8.948936 796
8.974088 756
8.99924  730
9.024392 751
9.049543 692
9.074696 701
9.099847 728
9.124999 706
9.150151 686
9.175303 732
9.200455 698
9.225606 739
9.250758 719
9.27591  716
9.301062 736
9.326214 696
9.351365 679
9.376517 711
9.40167  686
9.426821 701
9.451973 709
9.477124 671
9.502276 683
9.527429 665
9.55258  630
9.577732 686
9.602883 685
9.628036 711
9.653188 656
9.678339 643
9.703491 648
9.728642 684
9.753795 641
9.778947 623
9.804098 658
9.82925  629
9.854402 669
9.879554 686
9.904706 668
9.929857 666
9.955009 667
9.980161 650
10.00531 626
