Commander Sample ID
5.0001   30
5.025252 30
5.050404 0
5.075556 0
5.100708 30
5.125859 0
5.151011 34
5.176163 5
5.201315 38
5.226467 36
5.251618 0
5.27677  26
5.301922 23
5.327074 0
5.352226 0
5.377378 47
5.402529 0
5.427681 26
5.452833 29
5.477985 24
5.503137 36
5.528288 0
5.55344  1
5.578592 0
5.603744 27
5.628896 20
5.654047 50
5.679199 0
5.704351 19
5.729503 11
5.754655 57
5.779807 0
5.804958 0
5.83011  33
5.855262 32
5.880414 16
5.905566 16
5.930717 29
5.955869 0
5.981021 0
6.006173 0
6.031325 0
6.056477 0
6.081628 24
6.106781 3
6.131932 0
6.157084 46
6.182236 44
6.207387 0
6.23254  2
6.257691 46
6.282843 16
6.307995 27
6.333147 45
6.358299 52
6.383451 25
6.408602 0
6.433754 46
6.458906 59
6.484058 82
6.50921  16
6.534361 101
6.559513 39
6.584665 72
6.609817 98
6.634969 49
6.66012  106
6.685272 150
6.710424 154
6.735576 137
6.760728 238
6.78588  256
6.811031 302
6.836183 301
6.861335 308
6.886487 426
6.911639 505
6.93679  597
6.961942 552
6.987094 650
7.012246 752
7.037398 862
7.06255  1030
7.087701 1079
7.112853 1459
7.138005 1665
7.163157 2320
7.188309 2775
7.21346  4160
7.238612 5309
7.263764 6166
7.288916 5425
7.314068 3373
7.33922  1343
7.364371 530
7.389524 320
7.414675 138
7.439827 58
7.464979 59
7.49013  31
7.515283 52
7.540434 8
7.565586 7
7.590738 0
7.61589  0
7.641042 0
7.666193 11
7.691345 0
7.716497 0
7.741649 7
7.7668   7
7.791953 0
7.817104 24
7.842256 0
7.867408 0
7.89256  40
7.917712 52
7.942863 85
7.968015 118
7.993167 67
8.018319 194
8.04347  149
8.068623 196
8.093775 275
8.118926 313
8.144078 385
8.16923  400
8.194382 487
8.219534 553
8.244685 725
8.269837 911
8.294989 1182
8.320141 1639
8.345292 2207
8.370444 2924
8.395597 3297
8.420748 2931
8.4459   2154
8.471051 827
8.496203 291
8.521356 169
8.546507 157
8.571659 100
8.59681  89
8.621963 105
8.647115 68
8.672266 78
8.697418 29
8.722569 113
8.747722 64
8.772874 70
8.798025 97
8.823177 109
8.848329 44
8.873481 135
8.898633 46
8.923784 132
8.948936 59
8.974088 81
8.99924  73
9.024392 86
9.049543 118
9.074696 76
9.099847 89
9.124999 89
9.150151 117
9.175303 101
9.200455 17
9.225606 115
9.250758 108
9.27591  89
9.301062 55
9.326214 131
9.351365 46
9.376517 95
9.40167  9
9.426821 159
9.451973 65
9.477124 87
9.502276 60
9.527429 119
9.55258  22
9.577732 134
9.602883 57
9.628036 71
9.653188 56
9.678339 68
9.703491 45
9.728642 10
9.753795 66
9.778947 39
9.804098 46
9.82925  58
9.854402 45
9.879554 14
9.904706 59
9.929857 53
9.955009 0
9.980161 0
10.00531 50
