Commander Sample ID
5.0001   70
5.025252 70
5.050404 21
5.075556 39
5.100708 0
5.125859 55
5.151011 5
5.176163 0
5.201315 0
5.226467 7
5.251618 10
5.27677  0
5.301922 0
5.327074 18
5.352226 0
5.377378 0
5.402529 42
5.427681 0
5.452833 0
5.477985 0
5.503137 0
5.528288 0
5.55344  36
5.578592 0
5.603744 0
5.628896 0
5.654047 18
5.679199 0
5.704351 29
5.729503 11
5.754655 27
5.779807 7
5.804958 12
5.83011  62
5.855262 60
5.880414 32
5.905566 2
5.930717 15
5.955869 14
5.981021 4
6.006173 11
6.031325 10
6.056477 19
6.081628 6
6.106781 0
6.131932 40
6.157084 7
6.182236 18
6.207387 0
6.23254  45
6.257691 9
6.282843 28
6.307995 47
6.333147 23
6.358299 27
6.383451 54
6.408602 13
6.433754 35
6.458906 96
6.484058 55
6.50921  60
6.534361 27
6.559513 115
6.584665 29
6.609817 93
6.634969 97
6.66012  124
6.685272 81
6.710424 90
6.735576 163
6.760728 132
6.78588  172
6.811031 173
6.836183 157
6.861335 264
6.886487 227
6.911639 335
6.93679  365
6.961942 429
6.987094 557
7.012246 566
7.037398 711
7.06255  781
7.087701 1083
7.112853 1306
7.138005 1565
7.163157 2075
7.188309 2844
7.21346  3813
7.238612 4955
7.263764 6025
7.288916 7292
7.314068 7724
7.33922  6814
7.364371 4189
7.389524 2244
7.414675 964
7.439827 508
7.464979 209
7.49013  137
7.515283 123
7.540434 107
7.565586 91
7.590738 99
7.61589  73
7.641042 38
7.666193 34
7.691345 30
7.716497 8
7.741649 46
7.7668   8
7.791953 8
7.817104 1
7.842256 28
7.867408 19
7.89256  25
7.917712 72
7.942863 24
7.968015 62
7.993167 77
8.018319 63
8.04347  108
8.068623 108
8.093775 148
8.118926 156
8.144078 189
8.16923  250
8.194382 352
8.219534 459
8.244685 486
8.269837 773
8.294989 931
8.320141 1397
8.345292 1924
8.370444 2575
8.395597 3264
8.420748 3632
8.4459   3988
8.471051 3511
8.496203 2272
8.521356 1177
8.546507 457
8.571659 280
8.59681  102
8.621963 147
8.647115 84
8.672266 137
8.697418 78
8.722569 83
8.747722 52
8.772874 89
8.798025 44
8.823177 49
8.848329 63
8.873481 92
8.898633 48
8.923784 107
8.948936 53
8.974088 113
8.99924  17
9.024392 88
9.049543 100
9.074696 80
9.099847 62
9.124999 101
9.150151 40
9.175303 92
9.200455 21
9.225606 69
9.250758 96
9.27591  50
9.301062 164
9.326214 31
9.351365 67
9.376517 51
9.40167  59
9.426821 67
9.451973 35
9.477124 78
9.502276 46
9.527429 107
9.55258  28
9.577732 88
9.602883 13
9.628036 95
9.653188 16
9.678339 72
9.703491 16
9.728642 4
9.753795 50
9.778947 27
9.804098 16
9.82925  6
9.854402 5
9.879554 32
9.904706 54
9.929857 28
9.955009 24
9.980161 0
10.00531 1
