Commander Sample ID
5.0001   55
5.025252 55
5.050404 53
5.075556 0
5.100708 0
5.125859 10
5.151011 58
5.176163 27
5.201315 0
5.226467 14
5.251618 44
5.27677  12
5.301922 0
5.327074 10
5.352226 34
5.377378 25
5.402529 0
5.427681 19
5.452833 10
5.477985 0
5.503137 10
5.528288 0
5.55344  0
5.578592 0
5.603744 0
5.628896 0
5.654047 10
5.679199 19
5.704351 0
5.729503 44
5.754655 0
5.779807 0
5.804958 9
5.83011  0
5.855262 0
5.880414 0
5.905566 0
5.930717 18
5.955869 0
5.981021 26
6.006173 13
6.031325 12
6.056477 0
6.081628 60
6.106781 0
6.131932 0
6.157084 56
6.182236 20
6.207387 23
6.23254  13
6.257691 51
6.282843 14
6.307995 2
6.333147 0
6.358299 6
6.383451 27
6.408602 0
6.433754 18
6.458906 35
6.484058 14
6.50921  1
6.534361 0
6.559513 0
6.584665 4
6.609817 24
6.634969 9
6.66012  50
6.685272 41
6.710424 72
6.735576 29
6.760728 110
6.78588  66
6.811031 49
6.836183 62
6.861335 138
6.886487 95
6.911639 222
6.93679  185
6.961942 188
6.987094 202
7.012246 268
7.037398 391
7.06255  401
7.087701 500
7.112853 739
7.138005 807
7.163157 940
7.188309 1014
7.21346  1370
7.238612 1972
7.263764 2464
7.288916 2301
7.314068 1327
7.33922  552
7.364371 320
7.389524 172
7.414675 163
7.439827 34
7.464979 23
7.49013  21
7.515283 0
7.540434 0
7.565586 34
7.590738 0
7.61589  0
7.641042 0
7.666193 0
7.691345 0
7.716497 35
7.741649 21
7.7668   0
7.791953 0
7.817104 0
7.842256 24
7.867408 49
7.89256  0
7.917712 25
7.942863 21
7.968015 40
7.993167 45
8.018319 53
8.04347  53
8.068623 67
8.093775 63
8.118926 22
8.144078 142
8.16923  108
8.194382 109
8.219534 194
8.244685 202
8.269837 272
8.294989 282
8.320141 315
8.345292 467
8.370444 677
8.395597 813
8.420748 815
8.4459   531
8.471051 119
8.496203 100
8.521356 61
8.546507 68
8.571659 22
8.59681  35
8.621963 58
8.647115 27
8.672266 55
8.697418 0
8.722569 14
8.747722 0
8.772874 35
8.798025 67
8.823177 17
8.848329 0
8.873481 9
8.898633 1
8.923784 2
8.948936 1
8.974088 57
8.99924  18
9.024392 25
9.049543 46
9.074696 57
9.099847 52
9.124999 13
9.150151 41
9.175303 41
9.200455 3
9.225606 36
9.250758 25
9.27591  11
9.301062 28
9.326214 52
9.351365 59
9.376517 32
9.40167  64
9.426821 14
9.451973 38
9.477124 33
9.502276 10
9.527429 62
9.55258  11
9.577732 7
9.602883 45
9.628036 0
9.653188 25
9.678339 43
9.703491 12
9.728642 48
9.753795 36
9.778947 40
9.804098 26
9.82925  3
9.854402 0
9.879554 4
9.904706 20
9.929857 0
9.955009 20
9.980161 18
10.00531 0
