Commander Sample ID
5.0001   21
5.025252 21
5.050404 3
5.075556 26
5.100708 0
5.125859 17
5.151011 5
5.176163 0
5.201315 24
5.226467 0
5.251618 24
5.27677  4
5.301922 49
5.327074 16
5.352226 26
5.377378 0
5.402529 48
5.427681 17
5.452833 0
5.477985 27
5.503137 17
5.528288 0
5.55344  0
5.578592 65
5.603744 13
5.628896 2
5.654047 0
5.679199 16
5.704351 27
5.729503 0
5.754655 29
5.779807 11
5.804958 48
5.83011  12
5.855262 27
5.880414 0
5.905566 36
5.930717 0
5.955869 36
5.981021 12
6.006173 39
6.031325 34
6.056477 21
6.081628 24
6.106781 0
6.131932 22
6.157084 14
6.182236 44
6.207387 1
6.23254  0
6.257691 41
6.282843 0
6.307995 15
6.333147 42
6.358299 11
6.383451 25
6.408602 23
6.433754 14
6.458906 40
6.484058 0
6.50921  32
6.534361 0
6.559513 0
6.584665 64
6.609817 32
6.634969 51
6.66012  86
6.685272 8
6.710424 83
6.735576 29
6.760728 129
6.78588  139
6.811031 97
6.836183 173
6.861335 197
6.886487 155
6.911639 188
6.93679  286
6.961942 318
6.987094 301
7.012246 446
7.037398 459
7.06255  583
7.087701 700
7.112853 975
7.138005 1282
7.163157 1604
7.188309 2216
7.21346  2810
7.238612 3015
7.263764 3143
7.288916 3328
7.314068 2397
7.33922  1052
7.364371 296
7.389524 104
7.414675 89
7.439827 57
7.464979 3
7.49013  18
7.515283 0
7.540434 0
7.565586 45
7.590738 26
7.61589  56
7.641042 21
7.666193 18
7.691345 1
7.716497 25
7.741649 28
7.7668   47
7.791953 16
7.817104 77
7.842256 61
7.867408 3
7.89256  105
7.917712 39
7.942863 99
7.968015 104
7.993167 43
8.018319 106
8.04347  89
8.068623 134
8.093775 174
8.118926 92
8.144078 220
8.16923  174
8.194382 250
8.219534 310
8.244685 373
8.269837 434
8.294989 643
8.320141 899
8.345292 1043
8.370444 1274
8.395597 1253
8.420748 1419
8.4459   935
8.471051 600
8.496203 169
8.521356 120
8.546507 14
8.571659 85
8.59681  80
8.621963 59
8.647115 26
8.672266 61
8.697418 31
8.722569 48
8.747722 32
8.772874 0
8.798025 71
8.823177 19
8.848329 37
8.873481 76
8.898633 27
8.923784 64
8.948936 78
8.974088 24
8.99924  63
9.024392 36
9.049543 10
9.074696 59
9.099847 55
9.124999 10
9.150151 72
9.175303 31
9.200455 25
9.225606 0
9.250758 28
9.27591  47
9.301062 73
9.326214 63
9.351365 2
9.376517 12
9.40167  40
9.426821 45
9.451973 21
9.477124 55
9.502276 0
9.527429 34
9.55258  49
9.577732 20
9.602883 44
9.628036 48
9.653188 4
9.678339 51
9.703491 29
9.728642 27
9.753795 19
9.778947 53
9.804098 30
9.82925  37
9.854402 17
9.879554 23
9.904706 11
9.929857 23
9.955009 21
9.980161 14
10.00531 7
