Commander Sample ID
5.0001   21
5.025252 21
5.050404 0
5.075556 54
5.100708 4
5.125859 0
5.151011 0
5.176163 0
5.201315 0
5.226467 0
5.251618 0
5.27677  0
5.301922 0
5.327074 0
5.352226 0
5.377378 0
5.402529 14
5.427681 0
5.452833 0
5.477985 21
5.503137 14
5.528288 0
5.55344  0
5.578592 38
5.603744 0
5.628896 0
5.654047 13
5.679199 31
5.704351 0
5.729503 8
5.754655 0
5.779807 0
5.804958 0
5.83011  10
5.855262 0
5.880414 0
5.905566 0
5.930717 16
5.955869 0
5.981021 0
6.006173 0
6.031325 7
6.056477 1
6.081628 44
6.106781 17
6.131932 10
6.157084 33
6.182236 0
6.207387 2
6.23254  33
6.257691 0
6.282843 75
6.307995 39
6.333147 0
6.358299 54
6.383451 31
6.408602 0
6.433754 70
6.458906 0
6.484058 27
6.50921  49
6.534361 35
6.559513 109
6.584665 60
6.609817 87
6.634969 140
6.66012  104
6.685272 116
6.710424 156
6.735576 101
6.760728 194
6.78588  231
6.811031 174
6.836183 273
6.861335 201
6.886487 385
6.911639 353
6.93679  381
6.961942 528
6.987094 582
7.012246 711
7.037398 831
7.06255  876
7.087701 1105
7.112853 1180
7.138005 1390
7.163157 1638
7.188309 1805
7.21346  2186
7.238612 2629
7.263764 3123
7.288916 3412
7.314068 3453
7.33922  2683
7.364371 2005
7.389524 1193
7.414675 919
7.439827 631
7.464979 333
7.49013  74
7.515283 98
7.540434 51
7.565586 10
7.590738 71
7.61589  64
7.641042 0
7.666193 15
7.691345 39
7.716497 0
7.741649 0
7.7668   0
7.791953 46
7.817104 43
7.842256 25
7.867408 12
7.89256  0
7.917712 0
7.942863 68
7.968015 54
7.993167 52
8.018319 95
8.04347  119
8.068623 131
8.093775 157
8.118926 163
8.144078 207
8.16923  301
8.194382 260
8.219534 375
8.244685 474
8.269837 477
8.294989 702
8.320141 768
8.345292 888
8.370444 1164
8.395597 1332
8.420748 1534
8.4459   1458
8.471051 1138
8.496203 731
8.521356 540
8.546507 383
8.571659 389
8.59681  117
8.621963 128
8.647115 19
8.672266 45
8.697418 39
8.722569 77
8.747722 24
8.772874 73
8.798025 32
8.823177 29
8.848329 52
8.873481 14
8.898633 34
8.923784 47
8.948936 29
8.974088 64
8.99924  7
9.024392 119
9.049543 50
9.074696 45
9.099847 81
9.124999 70
9.150151 51
9.175303 39
9.200455 19
9.225606 98
9.250758 17
9.27591  59
9.301062 50
9.326214 81
9.351365 89
9.376517 12
9.40167  63
9.426821 47
9.451973 31
9.477124 63
9.502276 107
9.527429 7
9.55258  27
9.577732 84
9.602883 11
9.628036 68
9.653188 26
9.678339 43
9.703491 59
9.728642 102
9.753795 15
9.778947 53
9.804098 9
9.82925  50
9.854402 2
9.879554 46
9.904706 30
9.929857 30
9.955009 15
9.980161 0
10.00531 28
