Commander Sample ID
5.0001   22
5.025252 22
5.050404 40
5.075556 13
5.100708 32
5.125859 0
5.151011 15
5.176163 106
5.201315 0
5.226467 0
5.251618 67
5.27677  3
5.301922 0
5.327074 38
5.352226 13
5.377378 17
5.402529 18
5.427681 0
5.452833 0
5.477985 46
5.503137 0
5.528288 13
5.55344  19
5.578592 6
5.603744 0
5.628896 72
5.654047 0
5.679199 27
5.704351 1
5.729503 6
5.754655 41
5.779807 15
5.804958 0
5.83011  52
5.855262 29
5.880414 28
5.905566 29
5.930717 24
5.955869 2
5.981021 44
6.006173 29
6.031325 15
6.056477 4
6.081628 0
6.106781 24
6.131932 39
6.157084 29
6.182236 3
6.207387 76
6.23254  32
6.257691 37
6.282843 63
6.307995 2
6.333147 30
6.358299 105
6.383451 25
6.408602 19
6.433754 62
6.458906 109
6.484058 65
6.50921  62
6.534361 50
6.559513 29
6.584665 66
6.609817 47
6.634969 104
6.66012  38
6.685272 122
6.710424 49
6.735576 157
6.760728 137
6.78588  119
6.811031 205
6.836183 213
6.861335 258
6.886487 284
6.911639 236
6.93679  384
6.961942 387
6.987094 483
7.012246 545
7.037398 688
7.06255  716
7.087701 989
7.112853 1247
7.138005 1549
7.163157 1959
7.188309 2688
7.21346  3636
7.238612 4370
7.263764 5542
7.288916 5110
7.314068 4001
7.33922  1940
7.364371 679
7.389524 262
7.414675 214
7.439827 185
7.464979 30
7.49013  78
7.515283 71
7.540434 0
7.565586 76
7.590738 11
7.61589  42
7.641042 0
7.666193 7
7.691345 58
7.716497 40
7.741649 12
7.7668   0
7.791953 38
7.817104 5
7.842256 0
7.867408 42
7.89256  17
7.917712 5
7.942863 53
7.968015 14
7.993167 78
8.018319 46
8.04347  172
8.068623 78
8.093775 122
8.118926 176
8.144078 208
8.16923  214
8.194382 317
8.219534 428
8.244685 504
8.269837 743
8.294989 1092
8.320141 1354
8.345292 1760
8.370444 2168
8.395597 2571
8.420748 2478
8.4459   1963
8.471051 1052
8.496203 467
8.521356 150
8.546507 208
8.571659 70
8.59681  129
8.621963 105
8.647115 114
8.672266 42
8.697418 75
8.722569 125
8.747722 105
8.772874 84
8.798025 134
8.823177 87
8.848329 81
8.873481 60
8.898633 53
8.923784 91
8.948936 108
8.974088 81
8.99924  61
9.024392 88
9.049543 56
9.074696 110
9.099847 74
9.124999 107
9.150151 51
9.175303 83
9.200455 69
9.225606 85
9.250758 99
9.27591  84
9.301062 73
9.326214 124
9.351365 44
9.376517 71
9.40167  25
9.426821 90
9.451973 69
9.477124 41
9.502276 80
9.527429 21
9.55258  31
9.577732 124
9.602883 7
9.628036 68
9.653188 52
9.678339 45
9.703491 58
9.728642 32
9.753795 33
9.778947 35
9.804098 20
9.82925  33
9.854402 19
9.879554 18
9.904706 38
9.929857 14
9.955009 25
9.980161 11
10.00531 10
