Commander Sample ID
5.0001   108
5.025252 108
5.050404 57
5.075556 0
5.100708 148
5.125859 55
5.151011 125
5.176163 39
5.201315 98
5.226467 80
5.251618 156
5.27677  0
5.301922 24
5.327074 190
5.352226 0
5.377378 154
5.402529 289
5.427681 242
5.452833 100
5.477985 325
5.503137 198
5.528288 143
5.55344  517
5.578592 391
5.603744 473
5.628896 745
5.654047 590
5.679199 892
5.704351 807
5.729503 1096
5.754655 1272
5.779807 1289
5.804958 1631
5.83011  1835
5.855262 2236
5.880414 2525
5.905566 2963
5.930717 3444
5.955869 3491
5.981021 3634
6.006173 3367
6.031325 2750
6.056477 2120
6.081628 1336
6.106781 1017
6.131932 618
6.157084 357
6.182236 306
6.207387 148
6.23254  305
6.257691 105
6.282843 60
6.307995 147
6.333147 69
6.358299 35
6.383451 173
6.408602 22
6.433754 0
6.458906 0
6.484058 69
6.50921  0
6.534361 91
6.559513 0
6.584665 0
6.609817 11
6.634969 48
6.66012  0
6.685272 18
6.710424 32
6.735576 0
6.760728 100
6.78588  0
6.811031 0
6.836183 3
6.861335 50
6.886487 47
6.911639 0
6.93679  45
6.961942 7
6.987094 107
7.012246 32
7.037398 9
7.06255  44
7.087701 107
7.112853 17
7.138005 34
7.163157 99
7.188309 105
7.21346  30
7.238612 21
7.263764 29
7.288916 0
7.314068 2
7.33922  111
7.364371 0
7.389524 63
7.414675 17
7.439827 71
7.464979 0
7.49013  2
7.515283 113
7.540434 48
7.565586 97
7.590738 47
7.61589  17
7.641042 77
7.666193 0
7.691345 95
7.716497 92
7.741649 11
7.7668   0
7.791953 77
7.817104 6
7.842256 76
7.867408 32
7.89256  4
7.917712 122
7.942863 37
7.968015 109
7.993167 144
8.018319 124
8.04347  20
8.068623 232
8.093775 124
8.118926 80
8.144078 235
8.16923  156
8.194382 222
8.219534 244
8.244685 300
8.269837 249
8.294989 378
8.320141 366
8.345292 405
8.370444 368
8.395597 632
8.420748 570
8.4459   587
8.471051 678
8.496203 527
8.521356 696
8.546507 612
8.571659 352
8.59681  516
8.621963 224
8.647115 284
8.672266 207
8.697418 271
8.722569 197
8.747722 218
8.772874 212
8.798025 89
8.823177 245
8.848329 132
8.873481 196
8.898633 213
8.923784 156
8.948936 103
8.974088 131
8.99924  134
9.024392 54
9.049543 194
9.074696 72
9.099847 173
9.124999 30
9.150151 168
9.175303 22
9.200455 168
9.225606 0
9.250758 111
9.27591  15
9.301062 28
9.326214 18
9.351365 55
9.376517 52
9.40167  72
9.426821 18
9.451973 4
9.477124 40
9.502276 86
9.527429 11
9.55258  14
9.577732 38
9.602883 0
9.628036 87
9.653188 20
9.678339 0
9.703491 65
9.728642 13
9.753795 70
9.778947 10
9.804098 63
9.82925  18
9.854402 71
9.879554 33
9.904706 0
9.929857 61
9.955009 32
9.980161 6
10.00531 30
