Commander Sample ID
5.0001   38
5.025252 38
5.050404 43
5.075556 0
5.100708 9
5.125859 0
5.151011 15
5.176163 54
5.201315 18
5.226467 58
5.251618 0
5.27677  0
5.301922 11
5.327074 14
5.352226 0
5.377378 0
5.402529 0
5.427681 42
5.452833 0
5.477985 0
5.503137 0
5.528288 0
5.55344  58
5.578592 2
5.603744 27
5.628896 9
5.654047 31
5.679199 37
5.704351 16
5.729503 38
5.754655 0
5.779807 55
5.804958 0
5.83011  24
5.855262 23
5.880414 6
5.905566 0
5.930717 10
5.955869 12
5.981021 0
6.006173 48
6.031325 20
6.056477 0
6.081628 110
6.106781 17
6.131932 51
6.157084 31
6.182236 59
6.207387 37
6.23254  41
6.257691 21
6.282843 94
6.307995 65
6.333147 13
6.358299 52
6.383451 106
6.408602 32
6.433754 100
6.458906 41
6.484058 112
6.50921  79
6.534361 93
6.559513 86
6.584665 106
6.609817 142
6.634969 91
6.66012  185
6.685272 164
6.710424 227
6.735576 219
6.760728 260
6.78588  277
6.811031 270
6.836183 369
6.861335 354
6.886487 462
6.911639 486
6.93679  605
6.961942 601
6.987094 764
7.012246 842
7.037398 1002
7.06255  1203
7.087701 1489
7.112853 1621
7.138005 2174
7.163157 2634
7.188309 3179
7.21346  4302
7.238612 5272
7.263764 5723
7.288916 4918
7.314068 4326
7.33922  2964
7.364371 1688
7.389524 886
7.414675 477
7.439827 380
7.464979 196
7.49013  151
7.515283 76
7.540434 109
7.565586 4
7.590738 86
7.61589  5
7.641042 3
7.666193 43
7.691345 19
7.716497 0
7.741649 0
7.7668   0
7.791953 12
7.817104 0
7.842256 0
7.867408 0
7.89256  85
7.917712 26
7.942863 85
7.968015 58
7.993167 90
8.018319 175
8.04347  103
8.068623 171
8.093775 208
8.118926 239
8.144078 382
8.16923  419
8.194382 442
8.219534 624
8.244685 738
8.269837 1009
8.294989 1139
8.320141 1578
8.345292 2236
8.370444 2776
8.395597 2902
8.420748 2447
8.4459   2247
8.471051 1463
8.496203 819
8.521356 318
8.546507 232
8.571659 115
8.59681  124
8.621963 56
8.647115 44
8.672266 56
8.697418 86
8.722569 79
8.747722 16
8.772874 58
8.798025 59
8.823177 11
8.848329 75
8.873481 21
8.898633 65
8.923784 57
8.948936 54
8.974088 35
8.99924  17
9.024392 16
9.049543 78
9.074696 64
9.099847 7
9.124999 20
9.150151 70
9.175303 20
9.200455 48
9.225606 1
9.250758 57
9.27591  16
9.301062 37
9.326214 38
9.351365 26
9.376517 65
9.40167  49
9.426821 34
9.451973 20
9.477124 54
9.502276 85
9.527429 75
9.55258  23
9.577732 30
9.602883 65
9.628036 48
9.653188 111
9.678339 43
9.703491 35
9.728642 96
9.753795 51
9.778947 12
9.804098 24
9.82925  68
9.854402 8
9.879554 22
9.904706 8
9.929857 15
9.955009 38
9.980161 0
10.00531 20
