Commander Sample ID
5.0001   0
5.025252 0
5.050404 0
5.075556 3
5.100708 61
5.125859 17
5.151011 46
5.176163 0
5.201315 0
5.226467 0
5.251618 25
5.27677  7
5.301922 14
5.327074 0
5.352226 11
5.377378 43
5.402529 6
5.427681 0
5.452833 26
5.477985 31
5.503137 25
5.528288 0
5.55344  27
5.578592 65
5.603744 0
5.628896 0
5.654047 45
5.679199 0
5.704351 7
5.729503 32
5.754655 0
5.779807 14
5.804958 21
5.83011  0
5.855262 0
5.880414 64
5.905566 19
5.930717 0
5.955869 33
5.981021 41
6.006173 0
6.031325 0
6.056477 0
6.081628 12
6.106781 18
6.131932 41
6.157084 0
6.182236 1
6.207387 25
6.23254  2
6.257691 13
6.282843 0
6.307995 0
6.333147 13
6.358299 21
6.383451 28
6.408602 36
6.433754 21
6.458906 26
6.484058 1
6.50921  63
6.534361 24
6.559513 16
6.584665 34
6.609817 0
6.634969 8
6.66012  0
6.685272 3
6.710424 35
6.735576 25
6.760728 25
6.78588  40
6.811031 30
6.836183 35
6.861335 31
6.886487 15
6.911639 23
6.93679  74
6.961942 18
6.987094 38
7.012246 65
7.037398 106
7.06255  166
7.087701 162
7.112853 218
7.138005 346
7.163157 373
7.188309 658
7.21346  804
7.238612 1060
7.263764 1488
7.288916 1237
7.314068 634
7.33922  228
7.364371 127
7.389524 69
7.414675 69
7.439827 9
7.464979 25
7.49013  29
7.515283 0
7.540434 36
7.565586 0
7.590738 0
7.61589  0
7.641042 33
7.666193 0
7.691345 0
7.716497 0
7.741649 11
7.7668   0
7.791953 0
7.817104 45
7.842256 0
7.867408 26
7.89256  9
7.917712 45
7.942863 0
7.968015 0
7.993167 84
8.018319 21
8.04347  19
8.068623 23
8.093775 64
8.118926 35
8.144078 90
8.16923  29
8.194382 104
8.219534 71
8.244685 145
8.269837 197
8.294989 450
8.320141 734
8.345292 984
8.370444 968
8.395597 1123
8.420748 969
8.4459   534
8.471051 137
8.496203 92
8.521356 65
8.546507 50
8.571659 19
8.59681  58
8.621963 16
8.647115 34
8.672266 39
8.697418 22
8.722569 52
8.747722 22
8.772874 70
8.798025 15
8.823177 69
8.848329 9
8.873481 31
8.898633 9
8.923784 8
8.948936 57
8.974088 67
8.99924  31
9.024392 49
9.049543 41
9.074696 19
9.099847 38
9.124999 10
9.150151 97
9.175303 72
9.200455 26
9.225606 83
9.250758 0
9.27591  79
9.301062 19
9.326214 28
9.351365 0
9.376517 39
9.40167  15
9.426821 13
9.451973 17
9.477124 20
9.502276 11
9.527429 66
9.55258  55
9.577732 20
9.602883 0
9.628036 76
9.653188 0
9.678339 27
9.703491 12
9.728642 0
9.753795 49
9.778947 40
9.804098 18
9.82925  17
9.854402 24
9.879554 19
9.904706 21
9.929857 0
9.955009 10
9.980161 32
10.00531 0
