Commander Sample ID
5.0001   117
5.025252 117
5.050404 84
5.075556 0
5.100708 158
5.125859 68
5.151011 0
5.176163 84
5.201315 1
5.226467 19
5.251618 78
5.27677  51
5.301922 31
5.327074 102
5.352226 89
5.377378 44
5.402529 27
5.427681 0
5.452833 53
5.477985 0
5.503137 41
5.528288 0
5.55344  0
5.578592 0
5.603744 117
5.628896 0
5.654047 0
5.679199 0
5.704351 0
5.729503 0
5.754655 0
5.779807 0
5.804958 0
5.83011  0
5.855262 0
5.880414 0
5.905566 0
5.930717 0
5.955869 0
5.981021 0
6.006173 0
6.031325 0
6.056477 0
6.081628 0
6.106781 0
6.131932 0
6.157084 0
6.182236 0
6.207387 0
6.23254  0
6.257691 0
6.282843 0
6.307995 0
6.333147 0
6.358299 0
6.383451 0
6.408602 0
6.433754 0
6.458906 0
6.484058 0
6.50921  0
6.534361 0
6.559513 247
6.584665 89
6.609817 148
6.634969 139
6.66012  190
6.685272 203
6.710424 155
6.735576 250
6.760728 232
6.78588  231
6.811031 277
6.836183 404
6.861335 459
6.886487 472
6.911639 568
6.93679  673
6.961942 733
6.987094 740
7.012246 746
7.037398 1055
7.06255  1134
7.087701 1195
7.112853 1581
7.138005 1836
7.163157 2211
7.188309 2568
7.21346  3076
7.238612 3281
7.263764 2545
7.288916 1719
7.314068 962
7.33922  354
7.364371 346
7.389524 107
7.414675 246
7.439827 138
7.464979 260
7.49013  24
7.515283 108
7.540434 143
7.565586 160
7.590738 158
7.61589  82
7.641042 116
7.666193 99
7.691345 152
7.716497 49
7.741649 121
7.7668   51
7.791953 55
7.817104 46
7.842256 58
7.867408 73
7.89256  21
7.917712 45
7.942863 32
7.968015 170
7.993167 115
8.018319 75
8.04347  72
8.068623 67
8.093775 117
8.118926 145
8.144078 184
8.16923  199
8.194382 295
8.219534 285
8.244685 336
8.269837 477
8.294989 578
8.320141 661
8.345292 924
8.370444 910
8.395597 710
8.420748 541
8.4459   211
8.471051 66
8.496203 20
8.521356 0
8.546507 0
8.571659 0
8.59681  0
8.621963 0
8.647115 0
8.672266 29
8.697418 3
8.722569 49
8.747722 0
8.772874 48
8.798025 17
8.823177 102
8.848329 1
8.873481 0
8.898633 86
8.923784 30
8.948936 156
8.974088 135
8.99924  52
9.024392 43
9.049543 63
9.074696 43
9.099847 66
9.124999 127
9.150151 11
9.175303 167
9.200455 43
9.225606 125
9.250758 94
9.27591  160
9.301062 90
9.326214 121
9.351365 56
9.376517 95
9.40167  170
9.426821 19
9.451973 148
9.477124 14
9.502276 117
9.527429 25
9.55258  107
9.577732 31
9.602883 116
9.628036 61
9.653188 80
9.678339 45
9.703491 98
9.728642 37
9.753795 2
9.778947 150
9.804098 82
9.82925  44
9.854402 55
9.879554 55
9.904706 50
9.929857 3
9.955009 129
9.980161 103
10.00531 0
