Commander Sample ID
5.0001   5
5.025252 5
5.050404 81
5.075556 94
5.100708 29
5.125859 6
5.151011 0
5.176163 1
5.201315 36
5.226467 16
5.251618 0
5.27677  44
5.301922 49
5.327074 144
5.352226 154
5.377378 145
5.402529 41
5.427681 0
5.452833 0
5.477985 28
5.503137 17
5.528288 0
5.55344  40
5.578592 0
5.603744 92
5.628896 9
5.654047 0
5.679199 0
5.704351 0
5.729503 12
5.754655 55
5.779807 0
5.804958 0
5.83011  0
5.855262 0
5.880414 42
5.905566 0
5.930717 0
5.955869 0
5.981021 0
6.006173 26
6.031325 6
6.056477 70
6.081628 57
6.106781 0
6.131932 0
6.157084 0
6.182236 0
6.207387 0
6.23254  0
6.257691 79
6.282843 18
6.307995 0
6.333147 0
6.358299 0
6.383451 40
6.408602 0
6.433754 0
6.458906 0
6.484058 0
6.50921  185
6.534361 144
6.559513 0
6.584665 0
6.609817 0
6.634969 62
6.66012  99
6.685272 5
6.710424 19
6.735576 101
6.760728 68
6.78588  145
6.811031 63
6.836183 178
6.861335 187
6.886487 90
6.911639 272
6.93679  252
6.961942 571
6.987094 376
7.012246 452
7.037398 719
7.06255  684
7.087701 767
7.112853 1155
7.138005 1479
7.163157 1717
7.188309 2543
7.21346  3467
7.238612 3418
7.263764 2841
7.288916 1559
7.314068 632
7.33922  252
7.364371 180
7.389524 3
7.414675 26
7.439827 0
7.464979 0
7.49013  173
7.515283 86
7.540434 0
7.565586 18
7.590738 0
7.61589  39
7.641042 0
7.666193 0
7.691345 98
7.716497 63
7.741649 22
7.7668   0
7.791953 0
7.817104 46
7.842256 57
7.867408 40
7.89256  33
7.917712 31
7.942863 94
7.968015 30
7.993167 90
8.018319 175
8.04347  106
8.068623 159
8.093775 211
8.118926 46
8.144078 323
8.16923  186
8.194382 373
8.219534 297
8.244685 432
8.269837 517
8.294989 620
8.320141 741
8.345292 934
8.370444 1048
8.395597 904
8.420748 450
8.4459   336
8.471051 154
8.496203 164
8.521356 108
8.546507 95
8.571659 58
8.59681  95
8.621963 43
8.647115 114
8.672266 128
8.697418 85
8.722569 23
8.747722 74
8.772874 65
8.798025 96
8.823177 92
8.848329 163
8.873481 47
8.898633 32
8.923784 55
8.948936 54
8.974088 149
8.99924  113
9.024392 79
9.049543 43
9.074696 49
9.099847 33
9.124999 93
9.150151 61
9.175303 61
9.200455 4
9.225606 123
9.250758 43
9.27591  54
9.301062 51
9.326214 21
9.351365 151
9.376517 34
9.40167  92
9.426821 50
9.451973 0
9.477124 53
9.502276 37
9.527429 31
9.55258  64
9.577732 52
9.602883 10
9.628036 153
9.653188 45
9.678339 100
9.703491 82
9.728642 59
9.753795 48
9.778947 24
9.804098 90
9.82925  37
9.854402 70
9.879554 0
9.904706 26
9.929857 6
9.955009 33
9.980161 50
10.00531 0
