Commander Sample ID
5.0001   4
5.025252 4
5.050404 196
5.075556 3
5.100708 59
5.125859 30
5.151011 52
5.176163 108
5.201315 40
5.226467 59
5.251618 59
5.27677  9
5.301922 1
5.327074 7
5.352226 0
5.377378 0
5.402529 0
5.427681 0
5.452833 0
5.477985 6
5.503137 0
5.528288 7
5.55344  0
5.578592 0
5.603744 0
5.628896 0
5.654047 0
5.679199 0
5.704351 0
5.729503 0
5.754655 0
5.779807 0
5.804958 0
5.83011  0
5.855262 0
5.880414 0
5.905566 0
5.930717 0
5.955869 0
5.981021 0
6.006173 0
6.031325 0
6.056477 0
6.081628 0
6.106781 0
6.131932 0
6.157084 0
6.182236 0
6.207387 0
6.23254  0
6.257691 0
6.282843 0
6.307995 0
6.333147 0
6.358299 0
6.383451 0
6.408602 0
6.433754 62
6.458906 30
6.484058 0
6.50921  69
6.534361 26
6.559513 74
6.584665 72
6.609817 167
6.634969 129
6.66012  139
6.685272 196
6.710424 409
6.735576 310
6.760728 512
6.78588  460
6.811031 566
6.836183 591
6.861335 612
6.886487 1019
6.911639 1066
6.93679  1163
6.961942 1442
6.987094 1590
7.012246 1941
7.037398 2365
7.06255  2629
7.087701 3175
7.112853 3961
7.138005 4708
7.163157 5285
7.188309 5841
7.21346  5714
7.238612 5002
7.263764 3979
7.288916 2338
7.314068 1317
7.33922  818
7.364371 480
7.389524 202
7.414675 192
7.439827 50
7.464979 95
7.49013  15
7.515283 51
7.540434 0
7.565586 0
7.590738 91
7.61589  42
7.641042 0
7.666193 0
7.691345 0
7.716497 0
7.741649 0
7.7668   48
7.791953 0
7.817104 0
7.842256 7
7.867408 16
7.89256  58
7.917712 114
7.942863 105
7.968015 124
7.993167 173
8.018319 324
8.04347  151
8.068623 360
8.093775 357
8.118926 546
8.144078 658
8.16923  906
8.194382 865
8.219534 1283
8.244685 1231
8.269837 1634
8.294989 2030
8.320141 2226
8.345292 2148
8.370444 1974
8.395597 1532
8.420748 873
8.4459   577
8.471051 291
8.496203 220
8.521356 83
8.546507 113
8.571659 64
8.59681  22
8.621963 86
8.647115 14
8.672266 117
8.697418 10
8.722569 55
8.747722 43
8.772874 147
8.798025 33
8.823177 3
8.848329 116
8.873481 77
8.898633 14
8.923784 103
8.948936 102
8.974088 132
8.99924  47
9.024392 178
9.049543 38
9.074696 97
9.099847 135
9.124999 69
9.150151 38
9.175303 51
9.200455 142
9.225606 70
9.250758 105
9.27591  47
9.301062 84
9.326214 131
9.351365 73
9.376517 131
9.40167  116
9.426821 128
9.451973 33
9.477124 121
9.502276 107
9.527429 29
9.55258  78
9.577732 145
9.602883 66
9.628036 188
9.653188 25
9.678339 190
9.703491 58
9.728642 48
9.753795 74
9.778947 46
9.804098 16
9.82925  40
9.854402 27
9.879554 60
9.904706 32
9.929857 77
9.955009 70
9.980161 0
10.00531 0
