Commander Sample ID
5.0001   184
5.025252 184
5.050404 26
5.075556 80
5.100708 73
5.125859 21
5.151011 16
5.176163 90
5.201315 60
5.226467 64
5.251618 0
5.27677  150
5.301922 0
5.327074 93
5.352226 71
5.377378 168
5.402529 25
5.427681 0
5.452833 170
5.477985 0
5.503137 45
5.528288 0
5.55344  58
5.578592 2
5.603744 82
5.628896 52
5.654047 0
5.679199 53
5.704351 0
5.729503 41
5.754655 57
5.779807 0
5.804958 74
5.83011  0
5.855262 0
5.880414 0
5.905566 0
5.930717 3
5.955869 0
5.981021 0
6.006173 0
6.031325 128
6.056477 0
6.081628 0
6.106781 0
6.131932 40
6.157084 5
6.182236 0
6.207387 0
6.23254  0
6.257691 0
6.282843 0
6.307995 0
6.333147 1
6.358299 0
6.383451 0
6.408602 0
6.433754 70
6.458906 0
6.484058 0
6.50921  69
6.534361 0
6.559513 103
6.584665 127
6.609817 196
6.634969 30
6.66012  232
6.685272 155
6.710424 113
6.735576 278
6.760728 279
6.78588  249
6.811031 405
6.836183 341
6.861335 403
6.886487 489
6.911639 577
6.93679  687
6.961942 673
6.987094 1042
7.012246 1215
7.037398 1505
7.06255  1478
7.087701 1896
7.112853 2237
7.138005 2509
7.163157 3067
7.188309 3547
7.21346  4280
7.238612 3980
7.263764 3599
7.288916 2887
7.314068 1982
7.33922  1509
7.364371 649
7.389524 328
7.414675 164
7.439827 193
7.464979 0
7.49013  56
7.515283 8
7.540434 0
7.565586 0
7.590738 50
7.61589  20
7.641042 127
7.666193 0
7.691345 26
7.716497 6
7.741649 8
7.7668   0
7.791953 66
7.817104 36
7.842256 89
7.867408 6
7.89256  137
7.917712 75
7.942863 69
7.968015 252
7.993167 140
8.018319 232
8.04347  218
8.068623 230
8.093775 403
8.118926 378
8.144078 524
8.16923  539
8.194382 605
8.219534 631
8.244685 977
8.269837 1065
8.294989 1280
8.320141 1598
8.345292 1613
8.370444 1995
8.395597 1636
8.420748 1329
8.4459   1009
8.471051 601
8.496203 388
8.521356 188
8.546507 154
8.571659 91
8.59681  93
8.621963 80
8.647115 35
8.672266 3
8.697418 125
8.722569 123
8.747722 5
8.772874 0
8.798025 62
8.823177 57
8.848329 23
8.873481 34
8.898633 36
8.923784 106
8.948936 14
8.974088 64
8.99924  8
9.024392 26
9.049543 105
9.074696 8
9.099847 90
9.124999 14
9.150151 0
9.175303 24
9.200455 90
9.225606 11
9.250758 12
9.27591  0
9.301062 108
9.326214 0
9.351365 89
9.376517 46
9.40167  122
9.426821 51
9.451973 27
9.477124 54
9.502276 80
9.527429 48
9.55258  14
9.577732 89
9.602883 37
9.628036 105
9.653188 104
9.678339 53
9.703491 49
9.728642 23
9.753795 90
9.778947 41
9.804098 61
9.82925  50
9.854402 99
9.879554 79
9.904706 6
9.929857 30
9.955009 25
9.980161 24
10.00531 20
