Commander Sample ID
5.0001   136
5.025252 136
5.050404 1
5.075556 56
5.100708 110
5.125859 0
5.151011 9
5.176163 28
5.201315 107
5.226467 18
5.251618 153
5.27677  90
5.301922 178
5.327074 21
5.352226 107
5.377378 176
5.402529 110
5.427681 0
5.452833 0
5.477985 354
5.503137 86
5.528288 67
5.55344  79
5.578592 182
5.603744 50
5.628896 158
5.654047 137
5.679199 105
5.704351 21
5.729503 92
5.754655 0
5.779807 34
5.804958 80
5.83011  21
5.855262 112
5.880414 0
5.905566 26
5.930717 41
5.955869 24
5.981021 58
6.006173 34
6.031325 25
6.056477 29
6.081628 20
6.106781 63
6.131932 190
6.157084 17
6.182236 0
6.207387 57
6.23254  63
6.257691 167
6.282843 88
6.307995 56
6.333147 121
6.358299 113
6.383451 231
6.408602 246
6.433754 342
6.458906 312
6.484058 421
6.50921  582
6.534361 356
6.559513 556
6.584665 453
6.609817 703
6.634969 527
6.66012  813
6.685272 750
6.710424 924
6.735576 911
6.760728 1077
6.78588  950
6.811031 1229
6.836183 1314
6.861335 1090
6.886487 1074
6.911639 1430
6.93679  1118
6.961942 1242
6.987094 1196
7.012246 1245
7.037398 1243
7.06255  1154
7.087701 1286
7.112853 1122
7.138005 1270
7.163157 1304
7.188309 1044
7.21346  1094
7.238612 1037
7.263764 953
7.288916 832
7.314068 886
7.33922  782
7.364371 779
7.389524 466
7.414675 580
7.439827 420
7.464979 443
7.49013  393
7.515283 370
7.540434 370
7.565586 237
7.590738 296
7.61589  187
7.641042 208
7.666193 258
7.691345 32
7.716497 199
7.741649 95
7.7668   68
7.791953 90
7.817104 72
7.842256 138
7.867408 93
7.89256  31
7.917712 77
7.942863 43
7.968015 0
7.993167 15
8.018319 102
8.04347  82
8.068623 53
8.093775 0
8.118926 75
8.144078 25
8.16923  163
8.194382 47
8.219534 118
8.244685 2
8.269837 1
8.294989 0
8.320141 55
8.345292 17
8.370444 131
8.395597 0
8.420748 43
8.4459   114
8.471051 68
8.496203 0
8.521356 64
8.546507 89
8.571659 0
8.59681  0
8.621963 0
8.647115 43
8.672266 55
8.697418 52
8.722569 120
8.747722 55
8.772874 40
8.798025 8
8.823177 46
8.848329 0
8.873481 31
8.898633 0
8.923784 0
8.948936 0
8.974088 0
8.99924  0
9.024392 0
9.049543 0
9.074696 0
9.099847 0
9.124999 0
9.150151 0
9.175303 0
9.200455 0
9.225606 0
9.250758 0
9.27591  0
9.301062 0
9.326214 0
9.351365 0
9.376517 0
9.40167  0
9.426821 0
9.451973 0
9.477124 0
9.502276 0
9.527429 0
9.55258  0
9.577732 0
9.602883 0
9.628036 0
9.653188 0
9.678339 0
9.703491 0
9.728642 0
9.753795 0
9.778947 0
9.804098 0
9.82925  0
9.854402 0
9.879554 0
9.904706 0
9.929857 16
9.955009 0
9.980161 7
10.00531 16
