Commander Sample ID
5.0001   58
5.020415 58
5.04073  13
5.061044 21
5.081359 8
5.101674 8
5.121988 0
5.142303 43
5.162618 0
5.182932 0
5.203247 1
5.223562 17
5.243876 0
5.264191 0
5.284506 0
5.304821 0
5.325135 0
5.34545  0
5.365765 13
5.386079 2
5.406394 0
5.426709 0
5.447023 0
5.467338 0
5.487653 29
5.507967 0
5.528282 0
5.548597 0
5.568912 0
5.589226 0
5.609541 0
5.629856 0
5.65017  0
5.670485 0
5.6908   0
5.711114 0
5.731429 0
5.751744 0
5.772058 0
5.792373 0
5.812688 0
5.833003 0
5.853317 0
5.873632 0
5.893947 0
5.914261 9
5.934576 1
5.954891 36
5.975205 0
5.99552  5
6.015835 32
6.03615  27
6.056464 0
6.076779 10
6.097094 15
6.117408 33
6.137723 0
6.158038 4
6.178352 48
6.198667 4
6.218982 10
6.239296 11
6.259611 25
6.279926 33
6.300241 11
6.320555 63
6.34087  0
6.361185 59
6.381499 40
6.401814 66
6.422129 49
6.442443 37
6.462758 95
6.483073 104
6.503387 73
6.523702 22
6.544017 138
6.564332 114
6.584646 122
6.604961 96
6.625276 186
6.64559  139
6.665905 233
6.68622  114
6.706534 267
6.726849 129
6.747164 255
6.767478 217
6.787793 303
6.808108 308
6.828423 322
6.848737 383
6.869052 424
6.889367 467
6.909681 545
6.929996 534
6.950311 675
6.970625 724
6.99094  723
7.011255 893
7.031569 927
7.051884 1066
7.072199 1204
7.092514 1333
7.112828 1598
7.133143 1721
7.153458 2061
7.173772 2414
7.194087 3048
7.214402 3725
7.234716 4856
7.255031 5624
7.275346 5481
7.29566  4873
7.315975 3747
7.33629  2269
7.356605 1090
7.376919 619
7.397234 365
7.417549 243
7.437863 130
7.458178 151
7.478493 125
7.498807 98
7.519122 95
7.539437 60
7.559752 52
7.580066 27
7.600381 41
7.620696 41
7.64101  96
7.661325 48
7.68164  7
7.701954 12
7.722269 4
7.742584 49
7.762898 13
7.783213 37
7.803528 35
7.823843 0
7.844157 7
7.864472 33
7.884787 37
7.905101 58
7.925416 48
7.945731 99
7.966045 54
7.98636  134
8.006675 99
8.026989 149
8.047304 191
8.067619 176
8.087934 244
8.108248 201
8.128563 244
8.148878 362
8.169192 286
8.189507 312
8.209822 417
8.230137 521
8.250451 572
8.270765 718
8.29108  866
8.311396 1174
8.33171  1451
8.352024 2217
8.372339 3193
8.392654 4760
8.412969 5140
8.433283 4877
8.453598 4048
8.473913 2592
8.494227 1241
8.514542 601
8.534857 299
8.555172 159
8.575486 155
8.5958   101
8.616116 22
8.636431 80
8.656745 77
8.677059 24
8.697374 42
8.71769  32
8.738004 39
8.758318 0
8.778633 25
8.798948 29
8.819263 12
8.839577 3
8.859892 28
8.880207 4
8.900521 1
8.920835 10
8.941151 19
8.961466 5
8.98178  0
9.002094 25
9.022409 7
9.042725 0
9.063039 3
9.083353 0
9.103668 29
9.123983 0
9.144298 0
9.164612 21
9.184927 0
9.205242 20
9.225556 18
9.245871 0
9.266186 32
9.286501 8
9.306815 11
9.327129 0
9.347445 21
9.36776  16
9.388074 22
9.408388 0
9.428703 35
9.449018 21
9.469333 7
9.489647 18
9.509962 29
9.530277 25
9.550591 34
9.570906 9
9.591221 27
9.611536 45
9.63185  2
9.652164 29
9.67248  10
9.692795 29
9.713109 22
9.733423 25
9.753738 22
9.774054 6
9.794368 18
9.814682 13
9.834997 51
9.855312 12
9.875627 35
9.895941 19
9.916256 16
9.936571 43
9.956885 0
9.9772   11
9.997515 25
10.01783 51
10.03814 2
10.05845 10
10.07877 33
10.09908 4
10.11940 37
10.13971 8
10.16003 3
10.18034 44
10.20066 44
10.22097 0
10.24129 37
10.26160 17
10.28192 24
10.30223 44
10.32255 8
10.34286 50
10.36317 27
10.38349 17
10.40380 21
10.42412 23
10.44443 45
10.46475 28
10.48506 21
10.50538 21
10.52569 19
10.54601 5
10.56632 16
10.58664 25
10.60695 31
10.62727 26
10.64758 9
10.6679  10
10.68821 20
10.70852 49
10.72884 28
10.74915 8
10.76947 6
10.78978 27
10.81010 19
10.83041 5
10.85073 4
10.87104 33
10.89136 11
10.91167 21
10.93199 31
10.95230 8
10.97262 1
10.99293 0
11.01324 25
11.03356 6
11.05387 1
11.07419 12
11.09450 23
11.11482 20
11.13513 3
11.15545 1
11.17576 16
11.19608 14
11.21639 17
11.23671 33
11.25702 31
11.27734 19
11.29765 18
11.31797 10
11.33828 13
11.35859 0
11.37891 37
11.39922 25
11.41954 6
11.43985 47
11.46017 14
11.48048 36
11.50080 21
11.52111 0
11.54143 19
11.56174 26
11.58206 22
11.60237 19
11.62269 52
11.64300 10
11.66332 37
11.68363 44
11.70394 62
11.72426 24
11.74457 38
11.76489 71
11.78520 81
11.80552 30
11.82583 143
11.84615 106
11.86646 101
11.88678 174
11.90709 289
11.92741 341
11.94772 373
11.96804 324
11.98835 279
12.00866 125
12.02898 69
12.04929 74
12.06961 14
12.08992 10
12.11024 43
12.13055 18
12.15087 1
12.17118 24
12.19150 7
12.21181 0
12.23213 10
12.25244 18
12.27276 9
12.29307 28
12.31339 13
12.33370 2
12.35401 30
12.37433 25
12.39464 12
12.41496 3
12.43527 14
12.45559 36
12.47590 19
12.49622 17
12.51653 5
12.53685 0
12.55716 12
12.57748 20
12.59779 9
12.61811 36
12.63842 0
12.65873 16
12.67905 47
12.69936 27
12.71968 4
12.73999 37
12.76031 25
12.78062 16
12.80094 24
12.82125 19
12.84157 1
12.86188 45
12.88220 57
12.90251 4
12.92283 31
12.94314 13
12.96346 20
12.98377 46
13.00408 44
13.02440 32
13.04471 2
13.06503 0
13.08534 33
13.10566 0
13.12597 24
13.14629 17
13.16660 12
13.18692 10
13.20723 14
13.22755 34
13.24786 20
13.26818 6
13.28849 22
13.30880 28
13.32912 13
13.34944 12
13.36975 20
13.39006 13
13.41038 14
13.43069 29
13.45101 27
13.47132 15
13.49164 10
13.51195 17
13.53227 48
13.55258 8
13.57290 22
13.59321 33
13.61353 26
13.63384 30
13.65416 8
13.67447 28
13.69478 35
13.71510 13
13.73541 16
13.75573 34
13.77604 23
13.79636 42
13.81667 25
13.83699 38
13.85730 42
13.87762 72
13.89793 58
13.91825 61
13.93856 74
13.95887 103
13.97919 161
13.99951 197
14.01982 238
14.04013 242
14.06045 207
14.08076 148
14.10108 106
14.12139 41
14.14171 27
14.16202 33
14.18234 27
14.20265 1
14.22297 13
14.24328 32
14.2636  2
14.28391 3
14.30423 19
14.32454 17
14.34485 4
14.36517 7
14.38548 13
14.40580 2
14.42611 22
14.44643 27
14.46674 10
14.48706 18
14.50737 9
14.52769 15
14.54800 5
14.56832 40
14.58863 33
14.60895 34
14.62926 39
14.64958 74
14.66989 75
14.69020 46
14.71052 66
14.73083 51
14.75115 34
14.77146 32
14.79178 27
14.81209 24
14.83241 0
14.85272 9
14.87304 39
14.89335 7
14.91367 2
14.93398 11
14.9543  14
14.97461 34
14.99492 5
15.01524 0
15.03555 2
15.05587 0
15.07618 25
15.09650 8
15.11681 0
15.13713 38
15.15744 36
15.17776 15
15.19807 3
15.21839 12
15.23870 38
15.25902 6
15.27933 0
15.29965 19
15.31996 25
15.34027 16
15.36059 1
15.38090 7
15.40122 7
15.42153 17
15.44185 11
15.46216 12
15.48248 23
15.50279 27
15.52311 3
15.54342 0
15.56374 22
15.58405 31
15.60437 0
15.62468 0
15.645   31
15.66531 10
15.68562 1
15.70594 13
15.72625 4
15.74657 19
15.76688 36
15.78720 27
15.80751 24
15.82783 6
15.84814 1
15.86846 2
15.88877 34
15.90909 6
15.92940 13
15.94972 11
15.97003 14
15.99034 35
16.01066 9
16.03097 0
16.05129 19
16.07160 41
16.09192 13
16.11223 12
16.13255 14
16.15286 25
16.17318 4
16.19349 0
16.21381 25
16.23412 52
16.25444 0
16.27475 3
16.29507 40
16.31538 33
16.33569 14
16.35601 4
16.37632 22
16.39664 33
16.41695 23
16.43727 12
16.45758 6
16.47790 23
16.49821 30
16.51853 0
16.53884 0
16.55916 0
16.57947 46
16.59979 36
16.62010 23
16.64041 17
16.66073 57
16.68104 37
16.70136 9
16.72167 33
16.74199 34
16.76230 12
16.78262 24
16.80293 65
16.82325 51
16.84356 52
16.86388 49
16.88419 82
16.90451 126
16.92482 213
16.94514 304
16.96545 343
16.98576 319
17.00608 314
17.02639 199
17.04671 138
17.06702 79
17.08734 49
17.10765 26
17.12797 19
17.14828 57
17.16860 13
17.18891 22
17.20923 9
17.22954 23
17.24986 39
17.27017 58
17.29048 44
17.31080 11
17.33112 4
17.35143 27
17.37174 13
17.39206 7
17.41237 19
17.43269 33
17.45300 35
17.47332 12
17.49363 21
17.51395 22
17.53426 7
17.55458 37
17.57489 28
17.59521 21
17.61552 9
17.63583 10
17.65615 15
17.67646 3
17.69678 19
17.71709 23
17.73741 3
17.75772 4
17.77804 6
17.79835 21
17.81867 15
17.83898 15
17.85930 6
17.87961 0
17.89993 22
17.92024 40
17.94055 10
17.96087 0
17.98119 10
18.00150 17
18.02181 0
18.04213 18
18.06244 6
18.08276 6
18.10307 28
18.12339 0
18.14370 0
18.16402 5
18.18433 34
18.20465 22
18.22496 6
18.24528 26
18.26559 15
18.28591 10
18.30622 4
18.32653 18
18.34685 19
18.36716 36
18.38748 29
18.40779 23
18.42811 30
18.44842 51
18.46874 49
18.48905 114
18.50937 88
18.52968 63
18.55000 62
18.57031 69
18.59063 39
18.61094 27
18.63126 18
18.65157 3
18.67188 16
18.69220 18
18.71251 9
18.73283 5
18.75314 19
18.77346 15
18.79377 14
18.81409 3
18.83440 10
18.85472 29
18.87503 0
18.89535 7
18.91566 0
18.93598 30
18.95629 22
18.97660 28
18.99692 5
19.01723 4
19.03755 36
19.05786 20
19.07818 15
19.09849 30
19.11881 11
19.13912 4
19.15944 22
19.17975 0
19.20007 15
19.22038 11
19.2407  17
19.26101 29
19.28133 21
19.30164 0
19.32195 14
19.34227 18
19.36258 16
19.38290 0
19.40321 28
19.42353 18
19.44384 11
19.46416 17
19.48447 5
19.50479 11
19.52510 2
19.54542 15
19.56573 0
19.58605 29
19.60636 34
19.62667 11
19.64699 8
19.66730 16
19.68762 0
19.70793 0
19.72825 16
19.74856 0
19.76888 17
19.78919 11
19.80951 24
19.82982 0
19.85014 21
19.87045 20
19.89077 18
19.91108 7
19.9314  37
19.95171 18
19.97202 14
19.99234 23
20.01265 0
20.03297 7
20.05328 7
20.07360 6
20.09391 13
20.11423 6
20.13454 36
20.15486 12
20.17517 6
20.19549 18
20.21580 9
20.23612 16
20.25643 3
20.27674 1
20.29706 0
20.31737 18
20.33769 34
20.35800 23
20.37832 7
20.39863 0
20.41895 38
20.43926 27
20.45958 15
20.47989 0
20.50021 5
20.52052 20
20.54084 11
20.56115 7
20.58147 4
20.60178 24
20.62209 2
20.64241 0
20.66272 12
20.68304 11
20.70335 28
20.72367 28
20.74398 37
20.76430 18
20.78461 53
20.80493 62
20.82524 84
20.84556 44
20.86587 56
20.88619 49
20.90650 45
20.92681 37
20.94713 2
20.96744 1
20.98776 12
21.00808 52
21.02839 23
21.04870 20
21.06902 6
21.08933 19
21.10965 11
21.12996 32
21.15028 13
21.17059 5
21.19091 33
21.21122 19
21.23154 9
21.25185 3
21.27216 29
21.29248 16
21.31279 24
21.33311 21
21.35342 18
21.37374 30
21.39405 28
21.41437 7
21.43468 6
21.45500 21
21.47531 29
21.49563 32
21.51594 23
21.53626 13
21.55657 19
21.57688 32
21.59720 32
21.61751 17
21.63783 7
21.65815 2
21.67846 0
21.69877 43
21.71909 15
21.73940 44
21.75972 37
21.78003 7
21.80035 3
21.82066 1
21.84098 63
21.86129 29
21.88161 23
21.90192 15
21.92223 15
21.94255 38
21.96287 30
21.98318 35
22.00349 45
22.02381 20
22.04412 51
22.06444 52
22.08475 110
22.10507 160
22.12538 254
22.14570 190
22.16601 147
22.18633 54
22.20664 69
22.22695 83
22.24727 23
22.26759 30
22.28790 14
22.30822 23
22.32853 20
22.34884 6
22.36916 26
22.38947 21
22.40979 15
22.43010 38
22.45042 24
22.47073 0
22.49105 18
22.51136 11
22.53168 25
22.55199 33
22.57230 3
22.59262 18
22.61294 37
22.63325 36
22.65356 17
22.67388 10
22.69419 4
22.71451 13
22.73482 30
22.75514 11
22.77545 0
22.79577 21
22.81608 18
22.83640 16
22.85671 21
22.87702 22
22.89734 0
22.91766 11
22.93797 3
22.95829 27
22.97860 18
22.99891 21
23.01923 10
23.03954 8
23.05986 15
23.08017 4
23.10049 35
23.12080 0
23.14112 27
23.16143 12
23.18175 24
23.20206 7
23.22238 24
23.24269 7
23.26301 14
23.28332 49
23.30363 16
23.32395 15
23.34426 0
23.36458 0
23.38489 4
23.40521 27
23.42552 19
23.44584 34
23.46615 15
23.48647 11
23.50678 29
23.5271  13
23.54741 15
23.56773 8
23.58804 0
23.60836 15
23.62867 0
23.64898 29
23.66930 19
23.68961 15
23.70993 19
23.73024 12
23.75056 0
23.77087 28
23.79119 20
23.81150 1
23.83182 0
23.85213 31
23.87245 18
23.89276 51
23.91308 0
23.93339 0
23.95370 0
23.97402 16
23.99433 28
24.01465 23
24.03496 42
24.05528 31
24.07559 60
24.09591 29
24.11622 91
24.13654 104
24.15685 87
24.17717 44
24.19748 14
24.2178  16
24.23811 33
24.25843 39
24.27874 36
24.29905 21
24.31937 3
24.33968 0
24.36000 20
24.38031 44
24.40063 42
24.42094 11
24.44126 13
24.46157 4
24.48189 9
24.50220 12
24.52252 40
24.54283 14
24.56315 21
24.58346 0
24.60377 0
24.62409 36
24.64440 35
24.66472 22
24.68503 14
24.70535 19
24.72566 28
24.74598 20
24.76629 0
24.78661 0
24.80692 15
24.82724 17
24.84755 30
24.86787 19
24.88818 1
24.90850 13
24.92881 14
24.94912 47
24.96944 13
24.98975 3
25.01007 23
25.03038 13
25.05070 21
25.07101 43
25.09133 29
25.11164 3
25.13196 1
25.15227 36
25.17259 54
25.19290 36
25.21322 60
25.23353 69
25.25384 126
25.27416 122
25.29447 115
25.31479 39
25.33510 41
25.35542 43
25.37573 69
25.39605 43
25.41636 68
25.43668 49
25.45699 24
25.47731 74
25.49762 74
25.51794 129
25.53825 186
25.55857 328
25.57888 412
25.59919 571
25.61951 588
25.63982 636
25.66014 475
25.68045 361
25.70077 268
25.72108 210
25.74140 114
25.76171 67
25.78203 0
25.80234 54
25.82266 45
25.84297 68
25.86329 18
25.88360 36
25.90391 30
25.92423 34
25.94455 21
25.96486 43
25.98517 20
26.00549 22
26.02580 16
26.04612 6
26.06643 34
26.08675 42
26.10706 24
26.12738 43
26.14769 5
26.16801 26
26.18832 16
26.20864 21
26.22895 15
26.24926 41
26.26958 31
26.28989 9
26.31021 7
26.33052 3
26.35084 15
26.37115 32
26.39147 24
26.41178 19
26.43210 10
26.45241 10
26.47273 21
26.49304 15
26.51336 24
26.53367 11
26.55398 9
26.57430 14
26.59462 9
26.61493 14
26.63524 54
26.65556 14
26.67587 3
26.69619 0
26.71650 6
26.73682 26
26.75713 29
26.77745 8
26.79776 35
26.81808 0
26.83839 17
26.85871 18
26.87902 31
26.89934 10
26.91965 34
26.93996 11
26.96028 7
26.98059 32
27.00091 37
27.02122 45
27.04154 21
27.06185 29
27.08217 18
27.10248 26
27.12280 33
27.14311 19
27.16343 15
27.18374 4
27.20406 14
27.22437 30
27.24469 0
27.26500 42
27.28531 36
27.30563 18
27.32594 25
27.34626 19
27.36657 21
27.38689 15
27.40720 3
27.42752 13
27.44783 15
27.46815 31
27.48846 21
27.50878 14
27.52909 17
27.54941 13
27.56972 24
27.59003 1
27.61035 0
27.63066 42
27.65098 4
27.67129 20
27.69161 24
27.71192 0
27.73224 45
27.75255 3
27.77287 34
27.79318 44
27.81350 18
27.83381 35
27.85413 8
27.87444 2
27.89476 28
27.91507 6
27.93538 34
27.95570 44
27.97601 54
27.99633 87
28.01664 103
28.03696 141
28.05727 114
28.07759 139
28.09790 112
28.11822 96
28.13853 79
28.15885 36
28.17916 25
28.19948 29
28.21979 13
28.24010 31
28.26042 23
28.28073 42
28.30105 31
28.32136 44
28.34168 28
28.36199 27
28.38231 31
28.40262 4
28.42294 38
28.44325 27
28.46357 7
28.48388 42
28.5042  15
28.52451 9
28.54483 20
28.56514 13
28.58545 1
28.60577 42
28.62608 0
28.64640 22
28.66671 8
28.68703 3
28.70734 35
28.72766 20
28.74797 42
28.76829 7
28.78860 23
28.80892 25
28.82923 26
28.84955 6
28.86986 0
28.89017 13
28.91049 22
28.93080 48
28.95112 21
28.97143 29
28.99175 0
29.01206 2
29.03238 39
29.05269 40
29.07301 39
29.09332 24
29.11364 0
29.13395 24
29.15427 5
29.17458 8
29.19490 14
29.21521 40
29.23552 12
29.25584 21
29.27615 15
29.29647 10
29.31678 4
29.33710 15
29.35741 28
29.37773 23
29.39804 57
29.41836 6
29.43867 3
29.45899 0
29.47930 7
29.49962 17
29.51993 10
29.54024 41
29.56056 21
29.58087 49
29.60119 15
29.62151 41
29.64182 74
29.66213 65
29.68245 104
29.70276 122
29.72308 93
29.74339 83
29.76371 58
29.78402 34
29.80434 32
29.82465 1
29.84497 14
29.86528 17
29.88559 7
29.90591 32
29.92622 30
29.94654 19
29.96685 0
29.98717 2
30.00748 2
30.02780 10
30.04811 26
30.06843 12
30.08874 34
30.10906 16
30.12937 22
30.14969 31
30.17000 37
30.19031 27
30.21063 19
30.23094 19
30.25126 5
30.27158 5
30.29189 42
30.31220 45
30.33252 20
30.35283 40
30.37315 31
30.39346 10
30.41378 33
30.43409 48
30.45441 28
30.47472 29
30.49504 37
30.51535 41
30.53566 48
30.55598 96
30.5763  134
30.59661 193
30.61692 247
30.63724 199
30.65755 160
30.67787 154
30.69818 82
30.71850 100
30.73881 57
30.75913 43
30.77944 43
30.79976 31
30.82007 12
30.84038 1
30.86070 30
30.88102 16
30.90133 26
30.92165 41
30.94196 6
30.96227 24
30.98259 27
31.00290 18
31.02322 51
31.04353 1
31.06385 8
31.08416 2
31.10448 22
31.12479 29
31.14511 21
31.16542 14
31.18574 18
31.20605 14
31.22637 6
31.24668 2
31.26699 12
31.28731 17
31.30762 34
31.32794 18
31.34825 21
31.36857 7
31.38888 3
31.40920 40
31.42951 5
31.44983 10
31.47014 32
31.49045 14
31.51077 54
31.53109 29
31.55140 17
31.57172 7
31.59203 2
31.61234 0
31.63266 19
31.65297 36
31.67329 13
31.69360 38
31.71392 33
31.73423 4
31.75455 0
31.77486 0
31.79518 3
31.81549 14
31.83581 1
31.85612 18
31.87644 25
31.89675 35
31.91706 16
31.93738 0
31.95769 0
31.97801 24
31.99832 28
32.01864 44
32.03895 30
32.05927 12
32.07958 52
32.09989 30
32.12021 42
32.14053 56
32.16084 47
32.18116 70
32.20147 61
32.22179 11
32.24210 32
32.26242 5
32.28273 4
32.30304 23
32.32336 6
32.34367 24
32.36399 29
32.38430 25
32.40462 24
32.42493 14
32.44525 3
32.46556 8
32.48588 8
32.50619 11
32.52650 8
32.54682 32
32.56713 10
32.58745 0
32.60776 32
32.62808 11
32.64839 17
32.66871 39
32.68902 8
32.70934 2
32.72965 33
32.74996 13
32.77028 35
32.7906  28
32.81091 3
32.83123 45
32.85154 6
32.87186 44
32.89217 40
32.91249 51
32.93280 45
32.95311 53
32.97343 85
32.99374 101
33.01406 129
33.03437 97
33.05469 92
33.07500 99
33.09532 40
33.11563 68
33.13595 19
33.15626 16
33.17657 15
33.19689 9
33.21720 13
33.23752 16
33.25783 28
33.27815 0
33.29847 17
33.31878 21
33.33909 22
33.35941 0
33.37972 3
33.40004 17
33.42035 3
33.44067 19
33.46098 4
33.4813  0
33.50161 7
33.52193 0
33.54224 11
33.56256 21
33.58287 8
33.60318 23
33.62350 3
33.64381 2
33.66413 14
33.68444 3
33.70476 22
33.72507 29
33.74539 24
33.76570 19
33.78602 22
33.80633 12
33.82664 1
33.84696 4
33.86727 0
33.88759 10
33.90790 10
33.92822 19
33.94854 13
33.96885 17
33.98916 26
34.00948 16
34.02979 2
34.05011 1
34.07042 16
34.09074 26
34.11105 21
34.13137 31
34.15168 10
34.17200 14
34.19231 1
34.21263 14
34.23294 16
34.25325 6
34.27357 5
34.29388 52
34.31420 35
34.33451 61
34.35483 80
34.37514 92
34.39546 146
34.41577 181
34.43609 181
34.45640 195
34.47671 191
34.49703 118
34.51734 93
34.53766 71
34.55798 17
34.57829 6
34.59861 45
34.61892 40
34.63923 24
34.65955 18
34.67986 29
34.70018 27
34.72049 10
34.74081 8
34.76112 13
34.78144 32
34.80175 26
34.82207 18
34.84238 25
34.86270 10
34.88301 0
34.90332 9
34.92364 37
34.94395 8
34.96427 30
34.98458 15
35.00490 12
35.02521 9
35.04553 19
35.06584 12
35.08616 8
35.10647 22
35.12678 18
35.14710 32
35.16741 8
35.18773 21
35.20805 20
35.22836 24
35.24868 32
35.26899 6
35.28930 15
35.30962 6
35.32993 1
35.35025 19
35.37056 44
35.39088 31
35.41119 65
35.43151 37
35.45182 22
35.47214 75
35.49245 105
35.51277 127
35.53308 137
35.55339 132
35.57371 136
35.59402 96
35.61434 41
35.63465 43
35.65497 8
35.67528 3
35.69560 0
35.71591 10
35.73623 16
35.75654 15
35.77685 28
35.79717 43
35.81749 14
35.83780 11
35.85812 32
35.87843 4
35.89875 0
35.91906 45
35.93937 8
35.95969 27
35.98000 28
36.00032 21
36.02063 11
36.04095 9
36.06126 0
36.08158 1
36.10189 7
36.12221 29
36.14252 23
36.16284 28
36.18315 9
36.20346 28
36.22378 2
36.24409 5
36.26441 2
36.28472 19
36.30504 18
36.32535 15
36.34567 11
36.36598 21
36.38630 23
36.40661 21
36.42692 19
36.44724 11
36.46756 18
36.48787 6
36.50819 7
36.52850 0
36.54882 7
36.56913 33
36.58944 34
36.60976 35
36.63007 35
36.65039 23
36.67070 20
36.69102 20
36.71133 29
36.73165 22
36.75196 4
36.77228 14
36.79259 14
36.81291 15
36.83322 34
36.85353 13
36.87385 35
36.89416 13
36.91448 18
36.93479 14
36.95511 6
36.97542 13
36.99574 19
37.01605 8
37.03637 0
37.05668 24
37.077   10
37.09731 22
37.11763 20
37.13794 33
37.15826 13
37.17857 9
37.19889 15
37.21920 3
37.23951 0
37.25983 22
37.28014 32
37.30046 18
37.32077 46
37.34109 59
37.36140 59
37.38172 52
37.40203 71
37.42235 36
37.44266 35
37.46298 28
37.48329 39
37.50360 4
37.52392 49
37.54423 28
37.56455 7
37.58486 9
37.60518 29
37.62549 8
37.64581 10
37.66612 18
37.68644 20
37.70675 20
37.72707 17
37.74738 24
37.7677  13
37.78801 17
37.80833 14
37.82864 3
37.84896 23
37.86927 12
37.88958 18
37.90990 31
37.93021 23
37.95053 10
37.97084 16
37.99116 4
38.01147 0
38.03179 0
38.05210 17
38.07242 19
38.09273 15
38.11305 23
38.13336 32
38.15367 3
38.17399 9
38.19430 19
38.21462 6
38.23494 12
38.25525 19
38.27556 1
38.29588 23
38.31619 11
38.33651 5
38.35682 12
38.37714 14
38.39745 7
38.41777 22
38.43808 14
38.45840 11
38.47871 10
38.49903 14
38.51934 18
38.53965 7
38.55997 8
38.58028 6
38.60060 18
38.62091 11
38.64123 21
38.66154 26
38.68186 16
38.70217 25
38.72249 16
38.74280 23
38.76312 17
38.78343 9
38.80374 21
38.82406 25
38.84437 14
38.86469 4
38.88501 20
38.90532 13
38.92563 0
38.94595 3
38.96626 18
38.98658 21
39.00689 11
39.02721 18
39.04752 13
39.06784 25
39.08815 6
39.10847 19
39.12878 11
39.14910 17
39.16941 20
39.18972 33
39.21004 6
39.23035 15
39.25067 18
39.27098 16
39.29130 25
39.31161 45
39.33193 43
39.35224 57
39.37256 82
39.39287 75
39.41319 70
39.43350 83
39.45381 98
39.47413 35
39.49445 43
39.51476 43
39.53508 30
39.55539 30
39.57570 26
39.59602 13
39.61633 25
39.63665 2
39.65696 28
39.67728 22
39.69759 11
39.71791 7
39.73822 16
39.75854 3
39.77885 8
39.79917 13
39.81948 17
39.83979 9
39.86011 25
39.88042 25
39.90074 4
39.92105 4
39.94137 44
39.96168 13
39.98200 0
40.00231 25
40.02263 21
40.04294 10
40.06326 18
40.08357 39
40.10388 15
40.12420 3
40.14452 14
40.16483 5
40.18515 10
40.20546 15
40.22577 11
40.24609 13
40.26640 13
40.28672 25
40.30703 15
40.32735 14
40.34766 24
40.36798 26
40.38829 10
40.40861 2
40.42892 12
40.44924 13
40.46955 17
40.48986 25
40.51018 36
40.53049 32
40.55081 16
40.57112 38
40.59144 67
40.61175 53
40.63207 59
40.65238 91
40.67270 69
40.69301 50
40.71333 54
40.73364 24
40.75396 6
40.77427 20
40.79459 34
40.81490 1
40.83522 27
40.85553 21
40.87584 15
40.89616 4
40.91647 16
40.93679 18
40.95710 17
40.97742 16
40.99773 28
41.01805 26
41.03836 11
41.05868 10
41.07899 10
41.09931 23
41.11962 21
41.13993 11
41.16025 21
41.18056 17
41.20088 4
41.22119 19
41.24151 3
41.26182 13
41.28214 26
41.30245 27
41.32277 37
41.34308 36
41.36340 27
41.38371 31
41.40403 6
41.42434 11
41.44466 0
41.46497 10
41.48529 9
41.50560 25
41.52591 27
41.54623 5
41.56654 15
41.58686 6
41.60717 5
41.62749 7
41.64780 12
41.66812 20
41.68843 37
41.70875 21
41.72906 15
41.74938 3
41.76969 10
41.79000 14
41.81032 11
41.83063 15
41.85095 32
41.87126 3
41.89158 21
41.9119  7
41.93221 6
41.95252 5
41.97284 10
41.99315 43
42.01347 26
42.03378 17
42.0541  3
42.07441 7
42.09473 19
42.11504 0
42.13536 7
42.15567 11
42.17598 22
42.19630 0
42.21661 26
42.23693 22
42.25724 38
42.27756 21
42.29787 16
42.31819 7
42.33850 19
42.35882 7
42.37913 6
42.39945 16
42.41976 7
42.44007 29
42.46039 2
42.48070 24
42.50102 16
42.52133 13
42.54165 37
42.56197 28
42.58228 22
42.60259 17
42.62291 19
42.64322 14
42.66354 10
42.68385 8
42.70417 10
42.72448 18
42.74480 19
42.76511 19
42.78543 13
42.80574 2
42.82605 6
42.84637 0
42.86668 0
42.88700 9
42.90731 31
42.92763 5
42.94794 14
42.96826 12
42.98857 35
43.00889 38
43.02920 20
43.04952 18
43.06983 20
43.09014 27
43.11046 18
43.13077 18
43.15109 38
43.17141 62
43.19172 50
43.21204 91
43.23235 105
43.25266 110
43.27298 61
43.29329 58
43.31361 40
43.33392 42
43.35424 41
43.37455 57
43.39487 69
43.41518 75
43.43550 123
43.45581 115
43.47612 92
43.49644 98
43.51675 43
43.53707 42
43.55738 41
43.57770 24
43.59801 18
43.61833 27
43.63864 13
43.65896 30
43.67927 26
43.69959 38
43.71990 9
43.74021 8
43.76053 31
43.78084 23
43.80116 8
43.82148 8
43.84179 25
43.86211 31
43.88242 15
43.90273 17
43.92305 1
43.94336 17
43.96368 11
43.98399 14
44.00431 0
44.02462 18
44.04494 5
44.06525 18
44.08557 33
44.10588 29
44.12619 31
44.14651 12
44.16682 10
44.18714 13
44.20745 5
44.22777 28
44.24808 23
44.26840 41
44.28871 35
44.30903 37
44.32934 46
44.34966 48
44.36997 52
44.39028 31
44.41060 54
44.43092 30
44.45123 24
44.47155 41
44.49186 24
44.51218 30
44.53249 3
44.55280 15
44.57312 3
44.59343 0
44.61375 6
44.63406 22
44.65438 29
44.67469 12
44.69501 12
44.71532 11
44.73564 0
44.75595 22
44.77626 0
44.79658 38
44.81689 24
44.83721 7
44.85752 4
44.87784 9
44.89815 22
44.91847 4
44.93878 13
44.95910 21
44.97941 26
44.99973 30
45.02004 22
45.04035 27
45.06067 46
45.08099 32
45.10130 22
45.12162 23
45.14193 20
45.16225 4
45.18256 28
45.20287 3
45.22319 16
45.24350 20
45.26382 11
45.28413 22
45.30445 14
45.32476 16
45.34508 27
45.36539 15
45.38571 12
45.40602 18
45.42633 25
45.44665 4
45.46696 13
45.48728 10
45.50759 20
45.52791 2
45.54822 9
45.56854 18
45.58886 16
45.60917 1
45.62948 33
45.64980 27
45.67011 15
45.69043 4
45.71074 11
45.73106 18
45.75137 13
45.77169 5
45.79200 17
45.81232 7
45.83263 0
45.85294 5
45.87326 6
45.89357 26
45.91389 10
45.93420 13
45.95452 8
45.97483 26
45.99515 12
46.01546 2
46.03578 21
46.05609 17
46.07640 15
46.09672 13
46.11703 2
46.13735 29
46.15766 23
46.17798 5
46.19829 9
46.21861 17
46.23893 18
46.25924 5
46.27955 1
46.29987 25
46.32018 20
46.3405  8
46.36081 7
46.38113 4
46.40144 16
46.42176 3
46.44207 1
46.46239 9
46.48270 19
46.50301 37
46.52333 1
46.54364 9
46.56396 14
46.58427 17
46.60459 22
46.62490 14
46.64522 5
46.66553 9
46.68585 22
46.70616 12
46.72647 0
46.74679 15
46.76710 26
46.78742 33
46.80773 26
46.82805 2
46.84837 7
46.86868 27
46.889   1
46.90931 23
46.92962 14
46.94994 16
46.97025 18
46.99057 16
47.01088 13
47.0312  21
47.05151 21
47.07183 5
47.09214 11
47.11246 14
47.13277 5
47.15308 8
47.17340 4
47.19371 9
47.21403 6
47.23434 6
47.25466 20
47.27497 13
47.29529 18
47.31560 1
47.33592 0
47.35623 8
47.37654 24
47.39686 2
47.41717 0
47.43749 18
47.45780 20
47.47812 6
47.49844 10
47.51875 13
47.53907 0
47.55938 10
47.57969 9
47.60001 7
47.62032 9
47.64064 15
47.66095 13
47.68127 12
47.70158 6
47.72190 5
47.74221 10
47.76253 2
47.78284 9
47.80315 5
47.82347 25
47.84378 24
47.86410 24
47.88441 5
47.90473 18
47.92504 21
47.94536 9
47.96567 1
47.98599 4
48.00630 28
48.02661 0
48.04693 25
48.06724 5
48.08756 18
48.10788 2
48.12819 16
48.14851 22
48.16882 13
48.18914 6
48.20945 5
48.22976 11
48.25008 9
48.27039 17
48.29071 23
48.31102 19
48.33134 23
48.35165 4
48.37197 19
48.39228 5
48.41260 41
48.43291 9
48.45322 21
48.47354 27
48.49385 36
48.51417 57
48.53448 30
48.55480 14
48.57511 16
48.59543 15
48.61574 32
48.63606 20
48.65637 21
48.67668 19
48.69700 8
48.71731 26
48.73763 14
48.75795 19
48.77826 18
48.79858 26
48.81889 17
48.83921 15
48.85952 15
48.87983 10
48.90015 21
48.92046 7
48.94078 23
48.96109 13
48.98141 19
49.00172 31
49.02204 0
49.04235 28
49.06267 16
49.08298 16
49.10329 11
49.12361 8
49.14392 21
49.16424 0
49.18455 8
49.20487 11
49.22518 17
49.24550 21
49.26581 16
49.28613 25
49.30644 22
49.32675 25
49.34707 25
49.36739 0
49.38770 18
49.40802 17
49.42833 12
49.44865 9
49.46896 18
49.48928 29
49.50959 38
49.52990 32
49.55022 26
49.57053 26
49.59085 37
49.61116 18
49.63148 23
49.65179 26
49.67211 24
49.69242 17
49.71274 6
49.73305 4
49.75336 8
49.77368 9
49.79399 11
49.81431 16
49.83462 16
49.85494 36
49.87525 23
49.89557 12
49.91588 16
49.93620 11
49.95651 18
49.97683 28
49.99714 8
50.01746 22
50.03777 28
50.05809 38
50.07840 49
50.09872 38
50.11903 47
50.13935 62
50.15966 73
50.17997 48
50.20029 46
50.22060 43
50.24092 46
50.26123 48
50.28155 17
50.30186 73
50.32218 50
50.34249 45
50.36281 51
50.38312 41
50.40343 28
50.42375 20
50.44406 27
50.46438 29
50.48469 24
50.50501 10
50.52533 20
50.54564 15
50.56595 30
50.58627 13
50.60658 21
50.6269  14
50.64721 28
50.66753 24
50.68784 24
50.70816 14
