Commander Sample ID
5.0001   0
5.025252 0
5.050404 112
5.075556 0
5.100708 146
5.125859 27
5.151011 111
5.176163 141
5.201315 35
5.226467 68
5.251618 3
5.27677  0
5.301922 0
5.327074 53
5.352226 106
5.377378 59
5.402529 151
5.427681 28
5.452833 93
5.477985 155
5.503137 10
5.528288 80
5.55344  65
5.578592 0
5.603744 0
5.628896 0
5.654047 0
5.679199 106
5.704351 39
5.729503 82
5.754655 48
5.779807 123
5.804958 0
5.83011  93
5.855262 10
5.880414 21
5.905566 125
5.930717 10
5.955869 47
5.981021 0
6.006173 41
6.031325 15
6.056477 76
6.081628 73
6.106781 60
6.131932 65
6.157084 20
6.182236 63
6.207387 59
6.23254  95
6.257691 102
6.282843 0
6.307995 47
6.333147 36
6.358299 75
6.383451 0
6.408602 74
6.433754 13
6.458906 0
6.484058 0
6.50921  1
6.534361 68
6.559513 47
6.584665 78
6.609817 66
6.634969 40
6.66012  43
6.685272 11
6.710424 90
6.735576 52
6.760728 40
6.78588  111
6.811031 110
6.836183 77
6.861335 61
6.886487 40
6.911639 148
6.93679  35
6.961942 9
6.987094 180
7.012246 202
7.037398 89
7.06255  131
7.087701 148
7.112853 244
7.138005 57
7.163157 219
7.188309 106
7.21346  180
7.238612 249
7.263764 409
7.288916 342
7.314068 459
7.33922  870
7.364371 1071
7.389524 786
7.414675 218
7.439827 204
7.464979 221
7.49013  100
7.515283 145
7.540434 26
7.565586 92
7.590738 187
7.61589  54
7.641042 62
7.666193 61
7.691345 157
7.716497 125
7.741649 81
7.7668   128
7.791953 5
7.817104 134
7.842256 102
7.867408 86
7.89256  150
7.917712 118
7.942863 136
7.968015 59
7.993167 194
8.018319 146
8.04347  108
8.068623 76
8.093775 0
8.118926 247
8.144078 77
8.16923  65
8.194382 68
8.219534 0
8.244685 64
8.269837 66
8.294989 29
8.320141 178
8.345292 38
8.370444 190
8.395597 19
8.420748 239
8.4459   279
8.471051 367
8.496203 311
8.521356 261
8.546507 135
8.571659 26
8.59681  2
8.621963 66
8.647115 20
8.672266 0
8.697418 0
8.722569 13
8.747722 0
8.772874 0
8.798025 87
8.823177 0
8.848329 33
8.873481 5
8.898633 0
8.923784 0
8.948936 17
8.974088 0
8.99924  74
9.024392 0
9.049543 66
9.074696 52
9.099847 0
9.124999 52
9.150151 46
9.175303 5
9.200455 47
9.225606 104
9.250758 2
9.27591  68
9.301062 3
9.326214 85
9.351365 22
9.376517 75
9.40167  86
9.426821 77
9.451973 20
9.477124 71
9.502276 58
9.527429 28
9.55258  82
9.577732 67
9.602883 69
9.628036 82
9.653188 35
9.678339 79
9.703491 50
9.728642 9
9.753795 36
9.778947 68
9.804098 81
9.82925  0
9.854402 17
9.879554 72
9.904706 0
9.929857 49
9.955009 14
9.980161 13
10.00531 25
