Commander Sample ID
5.0001   77
5.025252 77
5.050404 85
5.075556 80
5.100708 182
5.125859 52
5.151011 11
5.176163 114
5.201315 80
5.226467 0
5.251618 69
5.27677  46
5.301922 20
5.327074 12
5.352226 0
5.377378 0
5.402529 115
5.427681 0
5.452833 18
5.477985 83
5.503137 0
5.528288 0
5.55344  0
5.578592 0
5.603744 0
5.628896 0
5.654047 0
5.679199 121
5.704351 0
5.729503 0
5.754655 0
5.779807 0
5.804958 0
5.83011  0
5.855262 0
5.880414 0
5.905566 0
5.930717 0
5.955869 0
5.981021 0
6.006173 0
6.031325 0
6.056477 0
6.081628 0
6.106781 0
6.131932 0
6.157084 0
6.182236 0
6.207387 0
6.23254  0
6.257691 0
6.282843 0
6.307995 0
6.333147 0
6.358299 0
6.383451 0
6.408602 0
6.433754 0
6.458906 72
6.484058 0
6.50921  13
6.534361 0
6.559513 99
6.584665 4
6.609817 198
6.634969 212
6.66012  103
6.685272 230
6.710424 378
6.735576 185
6.760728 254
6.78588  409
6.811031 423
6.836183 522
6.861335 414
6.886487 808
6.911639 842
6.93679  1063
6.961942 1121
6.987094 1334
7.012246 1492
7.037398 1706
7.06255  2019
7.087701 2478
7.112853 2795
7.138005 4068
7.163157 5895
7.188309 8783
7.21346  10106
7.238612 9510
7.263764 4162
7.288916 1526
7.314068 968
7.33922  679
7.364371 162
7.389524 307
7.414675 68
7.439827 149
7.464979 191
7.49013  168
7.515283 164
7.540434 90
7.565586 65
7.590738 165
7.61589  157
7.641042 121
7.666193 32
7.691345 55
7.716497 2
7.741649 58
7.7668   8
7.791953 25
7.817104 20
7.842256 83
7.867408 19
7.89256  118
7.917712 157
7.942863 123
7.968015 116
7.993167 36
8.018319 266
8.04347  79
8.068623 328
8.093775 321
8.118926 358
8.144078 423
8.16923  418
8.194382 629
8.219534 774
8.244685 896
8.269837 1336
8.294989 1655
8.320141 2482
8.345292 2580
8.370444 2274
8.395597 1170
8.420748 474
8.4459   257
8.471051 165
8.496203 46
8.521356 0
8.546507 0
8.571659 0
8.59681  0
8.621963 0
8.647115 0
8.672266 0
8.697418 104
8.722569 102
8.747722 0
8.772874 27
8.798025 19
8.823177 11
8.848329 136
8.873481 49
8.898633 71
8.923784 113
8.948936 100
8.974088 173
8.99924  214
9.024392 141
9.049543 30
9.074696 93
9.099847 134
9.124999 197
9.150151 169
9.175303 211
9.200455 22
9.225606 168
9.250758 86
9.27591  161
9.301062 103
9.326214 116
9.351365 182
9.376517 82
9.40167  255
9.426821 50
9.451973 235
9.477124 57
9.502276 178
9.527429 137
9.55258  190
9.577732 118
9.602883 152
9.628036 213
9.653188 76
9.678339 141
9.703491 139
9.728642 125
9.753795 97
9.778947 12
9.804098 156
9.82925  86
9.854402 70
9.879554 5
9.904706 53
9.929857 127
9.955009 100
9.980161 0
10.00531 40
