Commander Sample ID
5.0001   69
5.025252 69
5.050404 161
5.075556 21
5.100708 142
5.125859 0
5.151011 0
5.176163 0
5.201315 60
5.226467 0
5.251618 0
5.27677  34
5.301922 0
5.327074 0
5.352226 0
5.377378 58
5.402529 0
5.427681 0
5.452833 0
5.477985 0
5.503137 0
5.528288 0
5.55344  10
5.578592 0
5.603744 0
5.628896 0
5.654047 0
5.679199 0
5.704351 0
5.729503 0
5.754655 8
5.779807 0
5.804958 0
5.83011  0
5.855262 0
5.880414 0
5.905566 0
5.930717 0
5.955869 0
5.981021 0
6.006173 0
6.031325 0
6.056477 0
6.081628 0
6.106781 0
6.131932 0
6.157084 0
6.182236 0
6.207387 8
6.23254  0
6.257691 0
6.282843 0
6.307995 0
6.333147 14
6.358299 0
6.383451 104
6.408602 0
6.433754 18
6.458906 0
6.484058 54
6.50921  29
6.534361 106
6.559513 0
6.584665 0
6.609817 28
6.634969 202
6.66012  190
6.685272 18
6.710424 251
6.735576 187
6.760728 391
6.78588  268
6.811031 349
6.836183 425
6.861335 492
6.886487 618
6.911639 680
6.93679  824
6.961942 975
6.987094 896
7.012246 1353
7.037398 1338
7.06255  1951
7.087701 2385
7.112853 3135
7.138005 4019
7.163157 5197
7.188309 6420
7.21346  6310
7.238612 6332
7.263764 4788
7.288916 2969
7.314068 1057
7.33922  632
7.364371 240
7.389524 298
7.414675 159
7.439827 305
7.464979 136
7.49013  182
7.515283 148
7.540434 134
7.565586 121
7.590738 111
7.61589  8
7.641042 104
7.666193 73
7.691345 113
7.716497 47
7.741649 138
7.7668   11
7.791953 137
7.817104 37
7.842256 93
7.867408 141
7.89256  82
7.917712 177
7.942863 98
7.968015 208
7.993167 163
8.018319 290
8.04347  238
8.068623 348
8.093775 335
8.118926 426
8.144078 582
8.16923  631
8.194382 852
8.219534 805
8.244685 1090
8.269837 1438
8.294989 1809
8.320141 2025
8.345292 2374
8.370444 2516
8.395597 2179
8.420748 1352
8.4459   596
8.471051 269
8.496203 175
8.521356 139
8.546507 79
8.571659 92
8.59681  52
8.621963 50
8.647115 103
8.672266 75
8.697418 12
8.722569 128
8.747722 69
8.772874 0
8.798025 134
8.823177 64
8.848329 16
8.873481 39
8.898633 4
8.923784 60
8.948936 147
8.974088 11
8.99924  99
9.024392 44
9.049543 34
9.074696 70
9.099847 5
9.124999 0
9.150151 99
9.175303 19
9.200455 19
9.225606 0
9.250758 20
9.27591  0
9.301062 69
9.326214 0
9.351365 16
9.376517 19
9.40167  0
9.426821 0
9.451973 2
9.477124 42
9.502276 32
9.527429 85
9.55258  14
9.577732 39
9.602883 0
9.628036 61
9.653188 21
9.678339 41
9.703491 0
9.728642 0
9.753795 0
9.778947 0
9.804098 0
9.82925  50
9.854402 38
9.879554 0
9.904706 45
9.929857 23
9.955009 25
9.980161 16
10.00531 0
