Commander Sample ID
5.0001   0
5.025252 0
5.050404 107
5.075556 136
5.100708 23
5.125859 123
5.151011 74
5.176163 161
5.201315 103
5.226467 114
5.251618 197
5.27677  125
5.301922 144
5.327074 222
5.352226 195
5.377378 154
5.402529 312
5.427681 195
5.452833 353
5.477985 333
5.503137 398
5.528288 435
5.55344  497
5.578592 305
5.603744 607
5.628896 791
5.654047 753
5.679199 771
5.704351 1130
5.729503 1264
5.754655 1171
5.779807 1971
5.804958 1965
5.83011  2308
5.855262 2755
5.880414 3243
5.905566 3662
5.930717 4121
5.955869 4268
5.981021 3763
6.006173 3180
6.031325 2191
6.056477 1341
6.081628 808
6.106781 558
6.131932 367
6.157084 199
6.182236 175
6.207387 240
6.23254  232
6.257691 23
6.282843 69
6.307995 19
6.333147 146
6.358299 140
6.383451 50
6.408602 92
6.433754 0
6.458906 0
6.484058 156
6.50921  0
6.534361 22
6.559513 0
6.584665 0
6.609817 0
6.634969 64
6.66012  29
6.685272 0
6.710424 0
6.735576 69
6.760728 0
6.78588  0
6.811031 0
6.836183 0
6.861335 0
6.886487 10
6.911639 0
6.93679  0
6.961942 0
6.987094 0
7.012246 0
7.037398 0
7.06255  0
7.087701 0
7.112853 0
7.138005 0
7.163157 0
7.188309 0
7.21346  0
7.238612 0
7.263764 108
7.288916 0
7.314068 0
7.33922  70
7.364371 0
7.389524 13
7.414675 0
7.439827 50
7.464979 3
7.49013  0
7.515283 18
7.540434 0
7.565586 0
7.590738 125
7.61589  0
7.641042 0
7.666193 77
7.691345 0
7.716497 0
7.741649 144
7.7668   14
7.791953 5
7.817104 71
7.842256 38
7.867408 20
7.89256  10
7.917712 159
7.942863 120
7.968015 53
7.993167 184
8.018319 115
8.04347  171
8.068623 261
8.093775 325
8.118926 200
8.144078 224
8.16923  345
8.194382 261
8.219534 328
8.244685 348
8.269837 534
8.294989 338
8.320141 611
8.345292 457
8.370444 643
8.395597 605
8.420748 784
8.4459   691
8.471051 825
8.496203 669
8.521356 714
8.546507 568
8.571659 495
8.59681  460
8.621963 352
8.647115 356
8.672266 170
8.697418 232
8.722569 186
8.747722 240
8.772874 250
8.798025 150
8.823177 241
8.848329 208
8.873481 273
8.898633 216
8.923784 130
8.948936 237
8.974088 96
8.99924  228
9.024392 78
9.049543 180
9.074696 13
9.099847 107
9.124999 88
9.150151 74
9.175303 135
9.200455 39
9.225606 119
9.250758 37
9.27591  90
9.301062 76
9.326214 1
9.351365 0
9.376517 0
9.40167  30
9.426821 58
9.451973 27
9.477124 33
9.502276 55
9.527429 9
9.55258  27
9.577732 35
9.602883 0
9.628036 60
9.653188 92
9.678339 67
9.703491 0
9.728642 36
9.753795 30
9.778947 48
9.804098 16
9.82925  0
9.854402 73
9.879554 10
9.904706 0
9.929857 73
9.955009 0
9.980161 40
10.00531 27
