Commander Sample ID
5.0001   19
5.025252 19
5.050404 55
5.075556 30
5.100708 51
5.125859 11
5.151011 100
5.176163 74
5.201315 3
5.226467 0
5.251618 26
5.27677  0
5.301922 6
5.327074 0
5.352226 12
5.377378 77
5.402529 14
5.427681 17
5.452833 53
5.477985 62
5.503137 7
5.528288 54
5.55344  70
5.578592 0
5.603744 14
5.628896 102
5.654047 0
5.679199 0
5.704351 0
5.729503 5
5.754655 19
5.779807 0
5.804958 0
5.83011  164
5.855262 0
5.880414 0
5.905566 0
5.930717 0
5.955869 0
5.981021 0
6.006173 0
6.031325 73
6.056477 0
6.081628 0
6.106781 63
6.131932 17
6.157084 39
6.182236 0
6.207387 45
6.23254  0
6.257691 0
6.282843 44
6.307995 33
6.333147 78
6.358299 0
6.383451 26
6.408602 37
6.433754 25
6.458906 19
6.484058 0
6.50921  44
6.534361 31
6.559513 42
6.584665 0
6.609817 81
6.634969 19
6.66012  0
6.685272 0
6.710424 83
6.735576 168
6.760728 18
6.78588  85
6.811031 111
6.836183 249
6.861335 1
6.886487 52
6.911639 27
6.93679  218
6.961942 70
6.987094 128
7.012246 107
7.037398 91
7.06255  154
7.087701 151
7.112853 158
7.138005 142
7.163157 234
7.188309 122
7.21346  144
7.238612 189
7.263764 212
7.288916 118
7.314068 116
7.33922  57
7.364371 11
7.389524 9
7.414675 63
7.439827 27
7.464979 25
7.49013  122
7.515283 0
7.540434 0
7.565586 35
7.590738 0
7.61589  6
7.641042 0
7.666193 0
7.691345 0
7.716497 51
7.741649 13
7.7668   0
7.791953 0
7.817104 0
7.842256 0
7.867408 0
7.89256  0
7.917712 0
7.942863 0
7.968015 0
7.993167 0
8.018319 0
8.04347  54
8.068623 3
8.093775 41
8.118926 59
8.144078 23
8.16923  79
8.194382 0
8.219534 0
8.244685 0
8.269837 0
8.294989 40
8.320141 0
8.345292 85
8.370444 10
8.395597 108
8.420748 27
8.4459   0
8.471051 72
8.496203 17
8.521356 0
8.546507 8
8.571659 189
8.59681  125
8.621963 36
8.647115 30
8.672266 135
8.697418 46
8.722569 42
8.747722 68
8.772874 31
8.798025 165
8.823177 12
8.848329 79
8.873481 39
8.898633 24
8.923784 65
8.948936 64
8.974088 77
8.99924  30
9.024392 79
9.049543 20
9.074696 10
9.099847 76
9.124999 26
9.150151 17
9.175303 47
9.200455 74
9.225606 0
9.250758 0
9.27591  135
9.301062 0
9.326214 92
9.351365 31
9.376517 34
9.40167  0
9.426821 0
9.451973 50
9.477124 38
9.502276 85
9.527429 28
9.55258  0
9.577732 0
9.602883 17
9.628036 0
9.653188 9
9.678339 3
9.703491 59
9.728642 2
9.753795 43
9.778947 0
9.804098 124
9.82925  38
9.854402 0
9.879554 0
9.904706 13
9.929857 0
9.955009 67
9.980161 3
10.00531 7
