Commander Sample ID
5.0001   117
5.025252 117
5.050404 104
5.075556 103
5.100708 7
5.125859 157
5.151011 66
5.176163 122
5.201315 44
5.226467 50
5.251618 0
5.27677  79
5.301922 191
5.327074 0
5.352226 0
5.377378 33
5.402529 44
5.427681 3
5.452833 13
5.477985 24
5.503137 86
5.528288 87
5.55344  0
5.578592 20
5.603744 54
5.628896 0
5.654047 0
5.679199 125
5.704351 11
5.729503 14
5.754655 101
5.779807 0
5.804958 70
5.83011  0
5.855262 0
5.880414 0
5.905566 0
5.930717 0
5.955869 0
5.981021 0
6.006173 0
6.031325 36
6.056477 0
6.081628 111
6.106781 0
6.131932 0
6.157084 33
6.182236 0
6.207387 0
6.23254  0
6.257691 0
6.282843 0
6.307995 50
6.333147 0
6.358299 100
6.383451 0
6.408602 0
6.433754 0
6.458906 98
6.484058 0
6.50921  38
6.534361 9
6.559513 43
6.584665 28
6.609817 76
6.634969 132
6.66012  94
6.685272 239
6.710424 187
6.735576 117
6.760728 313
6.78588  296
6.811031 158
6.836183 535
6.861335 458
6.886487 582
6.911639 650
6.93679  627
6.961942 717
6.987094 911
7.012246 1090
7.037398 1252
7.06255  1520
7.087701 1650
7.112853 2031
7.138005 2686
7.163157 3491
7.188309 4538
7.21346  5167
7.238612 5675
7.263764 3765
7.288916 1731
7.314068 943
7.33922  698
7.364371 591
7.389524 477
7.414675 485
7.439827 273
7.464979 401
7.49013  380
7.515283 313
7.540434 111
7.565586 206
7.590738 153
7.61589  247
7.641042 80
7.666193 47
7.691345 37
7.716497 39
7.741649 140
7.7668   43
7.791953 133
7.817104 42
7.842256 0
7.867408 13
7.89256  31
7.917712 63
7.942863 99
7.968015 67
7.993167 149
8.018319 28
8.04347  258
8.068623 79
8.093775 352
8.118926 185
8.144078 360
8.16923  455
8.194382 455
8.219534 657
8.244685 734
8.269837 886
8.294989 1253
8.320141 1725
8.345292 2037
8.370444 2111
8.395597 1597
8.420748 666
8.4459   281
8.471051 71
8.496203 81
8.521356 223
8.546507 94
8.571659 104
8.59681  76
8.621963 20
8.647115 113
8.672266 92
8.697418 19
8.722569 2
8.747722 9
8.772874 40
8.798025 49
8.823177 86
8.848329 83
8.873481 49
8.898633 52
8.923784 74
8.948936 98
8.974088 141
8.99924  71
9.024392 153
9.049543 191
9.074696 144
9.099847 99
9.124999 131
9.150151 109
9.175303 106
9.200455 169
9.225606 179
9.250758 139
9.27591  183
9.301062 36
9.326214 223
9.351365 26
9.376517 233
9.40167  112
9.426821 143
9.451973 121
9.477124 86
9.502276 162
9.527429 91
9.55258  178
9.577732 109
9.602883 142
9.628036 157
9.653188 110
9.678339 154
9.703491 70
9.728642 75
9.753795 161
9.778947 57
9.804098 77
9.82925  91
9.854402 90
9.879554 67
9.904706 40
9.929857 46
9.955009 62
9.980161 0
10.00531 16
