Commander Sample ID
5.0001   165
5.025252 165
5.050404 14
5.075556 9
5.100708 145
5.125859 6
5.151011 75
5.176163 56
5.201315 0
5.226467 173
5.251618 0
5.27677  86
5.301922 115
5.327074 59
5.352226 42
5.377378 9
5.402529 150
5.427681 29
5.452833 0
5.477985 18
5.503137 23
5.528288 190
5.55344  150
5.578592 0
5.603744 177
5.628896 176
5.654047 0
5.679199 0
5.704351 122
5.729503 0
5.754655 0
5.779807 0
5.804958 129
5.83011  120
5.855262 25
5.880414 5
5.905566 15
5.930717 0
5.955869 3
5.981021 69
6.006173 0
6.031325 0
6.056477 9
6.081628 0
6.106781 0
6.131932 0
6.157084 0
6.182236 41
6.207387 36
6.23254  0
6.257691 53
6.282843 0
6.307995 0
6.333147 0
6.358299 23
6.383451 0
6.408602 31
6.433754 29
6.458906 0
6.484058 40
6.50921  0
6.534361 127
6.559513 0
6.584665 169
6.609817 112
6.634969 87
6.66012  111
6.685272 167
6.710424 61
6.735576 124
6.760728 138
6.78588  236
6.811031 155
6.836183 374
6.861335 323
6.886487 327
6.911639 451
6.93679  512
6.961942 560
6.987094 775
7.012246 887
7.037398 993
7.06255  1190
7.087701 1563
7.112853 1840
7.138005 2388
7.163157 3251
7.188309 3964
7.21346  4429
7.238612 3517
7.263764 2604
7.288916 1095
7.314068 458
7.33922  163
7.364371 141
7.389524 109
7.414675 93
7.439827 107
7.464979 2
7.49013  0
7.515283 74
7.540434 20
7.565586 0
7.590738 190
7.61589  0
7.641042 0
7.666193 0
7.691345 0
7.716497 0
7.741649 0
7.7668   0
7.791953 0
7.817104 0
7.842256 36
7.867408 0
7.89256  0
7.917712 91
7.942863 0
7.968015 87
7.993167 4
8.018319 0
8.04347  193
8.068623 92
8.093775 131
8.118926 236
8.144078 233
8.16923  297
8.194382 507
8.219534 592
8.244685 719
8.269837 926
8.294989 1278
8.320141 1632
8.345292 1679
8.370444 1591
8.395597 1175
8.420748 590
8.4459   276
8.471051 90
8.496203 149
8.521356 111
8.546507 74
8.571659 49
8.59681  101
8.621963 13
8.647115 0
8.672266 37
8.697418 87
8.722569 102
8.747722 103
8.772874 103
8.798025 74
8.823177 59
8.848329 52
8.873481 80
8.898633 83
8.923784 108
8.948936 101
8.974088 82
8.99924  54
9.024392 95
9.049543 95
9.074696 171
9.099847 110
9.124999 94
9.150151 115
9.175303 121
9.200455 49
9.225606 164
9.250758 11
9.27591  172
9.301062 57
9.326214 35
9.351365 10
9.376517 83
9.40167  45
9.426821 95
9.451973 119
9.477124 5
9.502276 27
9.527429 92
9.55258  21
9.577732 87
9.602883 49
9.628036 33
9.653188 100
9.678339 75
9.703491 134
9.728642 52
9.753795 116
9.778947 82
9.804098 9
9.82925  55
9.854402 71
9.879554 4
9.904706 103
9.929857 84
9.955009 27
9.980161 0
10.00531 20
