Commander Sample ID
5.0001   133
5.025252 133
5.050404 28
5.075556 167
5.100708 84
5.125859 41
5.151011 0
5.176163 49
5.201315 67
5.226467 80
5.251618 18
5.27677  0
5.301922 43
5.327074 0
5.352226 0
5.377378 0
5.402529 14
5.427681 40
5.452833 0
5.477985 72
5.503137 0
5.528288 0
5.55344  74
5.578592 130
5.603744 0
5.628896 0
5.654047 0
5.679199 0
5.704351 1
5.729503 0
5.754655 0
5.779807 0
5.804958 80
5.83011  13
5.855262 0
5.880414 0
5.905566 6
5.930717 0
5.955869 0
5.981021 0
6.006173 18
6.031325 0
6.056477 0
6.081628 0
6.106781 0
6.131932 0
6.157084 8
6.182236 0
6.207387 46
6.23254  0
6.257691 0
6.282843 4
6.307995 0
6.333147 0
6.358299 0
6.383451 0
6.408602 0
6.433754 58
6.458906 0
6.484058 0
6.50921  46
6.534361 90
6.559513 205
6.584665 12
6.609817 205
6.634969 44
6.66012  332
6.685272 176
6.710424 231
6.735576 321
6.760728 223
6.78588  342
6.811031 342
6.836183 454
6.861335 593
6.886487 652
6.911639 695
6.93679  813
6.961942 919
6.987094 1039
7.012246 1110
7.037398 1558
7.06255  1612
7.087701 2013
7.112853 2306
7.138005 3001
7.163157 3815
7.188309 4890
7.21346  5297
7.238612 5447
7.263764 3950
7.288916 2100
7.314068 1210
7.33922  357
7.364371 353
7.389524 181
7.414675 205
7.439827 184
7.464979 146
7.49013  74
7.515283 105
7.540434 161
7.565586 41
7.590738 40
7.61589  176
7.641042 64
7.666193 128
7.691345 123
7.716497 100
7.741649 187
7.7668   89
7.791953 32
7.817104 110
7.842256 155
7.867408 18
7.89256  126
7.917712 198
7.942863 255
7.968015 137
7.993167 129
8.018319 248
8.04347  301
8.068623 231
8.093775 359
8.118926 487
8.144078 461
8.16923  572
8.194382 714
8.219534 699
8.244685 887
8.269837 1231
8.294989 1397
8.320141 1987
8.345292 2360
8.370444 2474
8.395597 2034
8.420748 1159
8.4459   561
8.471051 227
8.496203 78
8.521356 145
8.546507 68
8.571659 140
8.59681  0
8.621963 10
8.647115 119
8.672266 0
8.697418 107
8.722569 83
8.747722 80
8.772874 52
8.798025 105
8.823177 105
8.848329 71
8.873481 32
8.898633 51
8.923784 12
8.948936 88
8.974088 34
8.99924  2
9.024392 74
9.049543 38
9.074696 32
9.099847 60
9.124999 11
9.150151 0
9.175303 59
9.200455 36
9.225606 40
9.250758 61
9.27591  0
9.301062 70
9.326214 9
9.351365 58
9.376517 44
9.40167  50
9.426821 83
9.451973 13
9.477124 70
9.502276 19
9.527429 64
9.55258  66
9.577732 21
9.602883 89
9.628036 17
9.653188 97
9.678339 72
9.703491 162
9.728642 108
9.753795 41
9.778947 45
9.804098 39
9.82925  84
9.854402 17
9.879554 48
9.904706 46
9.929857 14
9.955009 31
9.980161 3
10.00531 0
