Commander Sample ID
5.0001   175
5.025252 175
5.050404 101
5.075556 125
5.100708 1
5.125859 204
5.151011 68
5.176163 57
5.201315 0
5.226467 9
5.251618 66
5.27677  23
5.301922 25
5.327074 0
5.352226 0
5.377378 0
5.402529 0
5.427681 178
5.452833 0
5.477985 91
5.503137 0
5.528288 0
5.55344  152
5.578592 0
5.603744 0
5.628896 0
5.654047 0
5.679199 60
5.704351 14
5.729503 0
5.754655 0
5.779807 26
5.804958 57
5.83011  0
5.855262 62
5.880414 0
5.905566 15
5.930717 0
5.955869 128
5.981021 72
6.006173 94
6.031325 6
6.056477 0
6.081628 18
6.106781 0
6.131932 57
6.157084 16
6.182236 61
6.207387 0
6.23254  16
6.257691 0
6.282843 0
6.307995 0
6.333147 25
6.358299 0
6.383451 0
6.408602 0
6.433754 40
6.458906 0
6.484058 117
6.50921  0
6.534361 97
6.559513 0
6.584665 165
6.609817 42
6.634969 92
6.66012  0
6.685272 0
6.710424 25
6.735576 0
6.760728 83
6.78588  16
6.811031 68
6.836183 122
6.861335 105
6.886487 170
6.911639 164
6.93679  178
6.961942 229
6.987094 363
7.012246 389
7.037398 547
7.06255  722
7.087701 804
7.112853 1251
7.138005 1756
7.163157 2324
7.188309 3070
7.21346  4055
7.238612 4471
7.263764 3427
7.288916 2127
7.314068 1161
7.33922  249
7.364371 190
7.389524 185
7.414675 121
7.439827 63
7.464979 117
7.49013  47
7.515283 0
7.540434 93
7.565586 101
7.590738 67
7.61589  0
7.641042 136
7.666193 81
7.691345 125
7.716497 0
7.741649 151
7.7668   96
7.791953 80
7.817104 40
7.842256 11
7.867408 36
7.89256  90
7.917712 64
7.942863 131
7.968015 61
7.993167 83
8.018319 92
8.04347  29
8.068623 50
8.093775 129
8.118926 132
8.144078 167
8.16923  181
8.194382 133
8.219534 240
8.244685 347
8.269837 568
8.294989 661
8.320141 878
8.345292 1136
8.370444 1040
8.395597 1027
8.420748 632
8.4459   244
8.471051 64
8.496203 43
8.521356 0
8.546507 0
8.571659 0
8.59681  60
8.621963 11
8.647115 0
8.672266 116
8.697418 17
8.722569 43
8.747722 14
8.772874 56
8.798025 17
8.823177 56
8.848329 147
8.873481 84
8.898633 78
8.923784 27
8.948936 29
8.974088 107
8.99924  43
9.024392 65
9.049543 78
9.074696 99
9.099847 45
9.124999 92
9.150151 115
9.175303 67
9.200455 171
9.225606 0
9.250758 139
9.27591  4
9.301062 69
9.326214 115
9.351365 99
9.376517 147
9.40167  95
9.426821 164
9.451973 71
9.477124 116
9.502276 35
9.527429 105
9.55258  148
9.577732 132
9.602883 126
9.628036 169
9.653188 143
9.678339 123
9.703491 93
9.728642 117
9.753795 87
9.778947 161
9.804098 70
9.82925  41
9.854402 168
9.879554 96
9.904706 47
9.929857 156
9.955009 70
9.980161 74
10.00531 44
10.03046 94
10.05561 43
10.08076 4
10.10592 88
10.13107 45
10.15622 10
10.18137 54
10.20652 41
10.23167 0
10.25683 76
10.28198 14
10.30713 0
10.33228 20
10.35743 12
10.38259 35
10.40774 3
10.43289 56
10.45804 0
10.48319 4
10.50834 0
10.53350 32
10.55865 0
10.58380 0
10.60895 0
10.63410 0
10.65926 0
10.68441 0
10.70956 18
10.73471 0
10.75986 0
10.78501 0
10.81017 0
10.83532 0
10.86047 0
10.88562 0
10.91077 0
10.93593 0
10.96108 0
10.98623 0
11.01138 0
11.03653 0
11.06168 0
11.08684 0
11.11199 22
11.13714 0
11.16229 0
11.18744 18
11.21260 17
11.23775 0
11.26290 0
11.28805 0
11.31320 35
11.33836 0
11.36351 0
11.38866 34
11.41381 28
11.43896 2
11.46411 0
11.48927 57
11.51442 18
11.53957 36
11.56472 13
11.58987 103
11.61502 28
11.64018 0
11.66533 99
11.69048 36
11.71563 59
11.74078 40
11.76594 37
11.79109 129
11.81624 91
11.84139 182
11.86654 123
11.8917  172
11.91685 161
11.94200 76
11.96715 68
11.99230 19
12.01745 116
12.04261 33
12.06776 31
12.09291 58
12.11806 78
12.14321 2
12.16836 94
12.19352 52
12.21867 10
12.24382 84
12.26897 43
12.29412 12
12.31928 10
12.34443 25
12.36958 36
12.39473 0
12.41988 11
12.44504 4
12.47019 25
12.49534 89
12.52049 36
12.54564 17
12.57079 66
12.59595 38
12.62110 46
12.64625 13
12.67140 67
12.69655 17
12.72170 41
12.74686 74
12.77201 60
12.79716 15
12.82231 0
12.84746 46
12.87262 19
12.89777 10
12.92292 47
12.94807 45
12.97322 16
12.99838 46
13.02353 36
13.04868 0
13.07383 55
13.09898 0
13.12413 132
13.14929 87
13.17444 81
13.19959 6
13.22474 0
13.24989 88
13.27505 47
13.30020 21
13.32535 35
13.35050 17
13.37565 16
13.40080 0
13.42596 59
13.45111 12
13.47626 6
13.50141 0
13.52656 58
13.55172 5
13.57687 70
13.60202 0
13.62717 13
13.65232 0
13.67747 0
13.70263 63
13.72778 6
13.75293 9
13.77808 34
13.80323 55
13.82839 84
13.85354 74
13.87869 52
13.90384 155
13.92899 136
13.95414 80
13.9793  110
14.00445 176
14.02960 30
14.05475 12
14.07990 37
14.10506 20
14.13021 0
14.15536 10
14.18051 84
14.20566 51
14.23081 15
14.25597 27
14.28112 29
14.30627 28
14.33142 99
14.35657 79
14.38173 64
14.40688 63
14.43203 14
14.45718 158
14.48233 76
14.50748 84
14.53264 203
14.55779 205
14.58294 270
14.60809 262
14.63324 235
14.6584  41
14.68355 94
14.70870 60
14.73385 15
14.75900 0
14.78415 14
14.80931 118
14.83446 1
14.85961 0
14.88476 26
14.90991 45
14.93507 25
14.96022 0
14.98537 34
15.01052 20
