Commander Sample ID
5.0001   67
5.025252 67
5.050404 2
5.075556 151
5.100708 118
5.125859 65
5.151011 76
5.176163 24
5.201315 105
5.226467 75
5.251618 25
5.27677  269
5.301922 71
5.327074 256
5.352226 161
5.377378 198
5.402529 361
5.427681 193
5.452833 415
5.477985 338
5.503137 343
5.528288 511
5.55344  539
5.578592 583
5.603744 625
5.628896 701
5.654047 843
5.679199 1014
5.704351 1166
5.729503 1343
5.754655 1456
5.779807 1836
5.804958 2177
5.83011  2371
5.855262 2906
5.880414 3453
5.905566 3811
5.930717 3764
5.955869 3348
5.981021 2829
6.006173 2139
6.031325 1633
6.056477 883
6.081628 809
6.106781 521
6.131932 377
6.157084 377
6.182236 269
6.207387 288
6.23254  102
6.257691 148
6.282843 223
6.307995 185
6.333147 82
6.358299 147
6.383451 116
6.408602 109
6.433754 167
6.458906 26
6.484058 61
6.50921  0
6.534361 48
6.559513 0
6.584665 0
6.609817 4
6.634969 24
6.66012  52
6.685272 0
6.710424 0
6.735576 69
6.760728 0
6.78588  0
6.811031 0
6.836183 0
6.861335 75
6.886487 0
6.911639 0
6.93679  0
6.961942 0
6.987094 14
7.012246 0
7.037398 0
7.06255  0
7.087701 45
7.112853 0
7.138005 0
7.163157 0
7.188309 0
7.21346  0
7.238612 0
7.263764 0
7.288916 0
7.314068 0
7.33922  0
7.364371 0
7.389524 0
7.414675 0
7.439827 0
7.464979 0
7.49013  0
7.515283 0
7.540434 0
7.565586 20
7.590738 0
7.61589  0
7.641042 0
7.666193 0
7.691345 0
7.716497 0
7.741649 0
7.7668   0
7.791953 19
7.817104 11
7.842256 0
7.867408 133
7.89256  0
7.917712 0
7.942863 21
7.968015 78
7.993167 0
8.018319 42
8.04347  201
8.068623 135
8.093775 99
8.118926 79
8.144078 128
8.16923  180
8.194382 253
8.219534 258
8.244685 197
8.269837 418
8.294989 310
8.320141 540
8.345292 566
8.370444 633
8.395597 688
8.420748 790
8.4459   645
8.471051 735
8.496203 679
8.521356 448
8.546507 549
8.571659 388
8.59681  409
8.621963 134
8.647115 363
8.672266 113
8.697418 224
8.722569 35
8.747722 275
8.772874 103
8.798025 135
8.823177 157
8.848329 162
8.873481 164
8.898633 129
8.923784 181
8.948936 124
8.974088 106
8.99924  117
9.024392 111
9.049543 165
9.074696 209
9.099847 82
9.124999 108
9.150151 144
9.175303 69
9.200455 82
9.225606 62
9.250758 92
9.27591  44
9.301062 191
9.326214 109
9.351365 79
9.376517 97
9.40167  19
9.426821 124
9.451973 47
9.477124 112
9.502276 49
9.527429 136
9.55258  129
9.577732 62
9.602883 71
9.628036 4
9.653188 71
9.678339 87
9.703491 18
9.728642 44
9.753795 111
9.778947 53
9.804098 23
9.82925  62
9.854402 31
9.879554 110
9.904706 23
9.929857 41
9.955009 37
9.980161 8
10.00531 23
