Commander Sample ID
5.0001   87
5.025252 87
5.050404 152
5.075556 32
5.100708 82
5.125859 104
5.151011 33
5.176163 0
5.201315 19
5.226467 169
5.251618 39
5.27677  263
5.301922 91
5.327074 118
5.352226 24
5.377378 62
5.402529 156
5.427681 153
5.452833 134
5.477985 135
5.503137 99
5.528288 81
5.55344  153
5.578592 188
5.603744 148
5.628896 129
5.654047 230
5.679199 6
5.704351 79
5.729503 47
5.754655 138
5.779807 83
5.804958 126
5.83011  160
5.855262 64
5.880414 148
5.905566 115
5.930717 0
5.955869 201
5.981021 50
6.006173 103
6.031325 24
6.056477 0
6.081628 162
6.106781 6
6.131932 121
6.157084 53
6.182236 187
6.207387 51
6.23254  0
6.257691 32
6.282843 25
6.307995 0
6.333147 113
6.358299 0
6.383451 0
6.408602 100
6.433754 40
6.458906 56
6.484058 19
6.50921  0
6.534361 43
6.559513 11
6.584665 126
6.609817 76
6.634969 105
6.66012  139
6.685272 162
6.710424 252
6.735576 184
6.760728 274
6.78588  473
6.811031 328
6.836183 432
6.861335 483
6.886487 534
6.911639 727
6.93679  559
6.961942 896
6.987094 903
7.012246 1079
7.037398 1241
7.06255  1339
7.087701 1646
7.112853 1781
7.138005 2506
7.163157 2779
7.188309 3673
7.21346  4165
7.238612 4043
7.263764 3372
7.288916 1904
7.314068 1107
7.33922  779
7.364371 337
7.389524 396
7.414675 282
7.439827 295
7.464979 105
7.49013  213
7.515283 239
7.540434 60
7.565586 102
7.590738 285
7.61589  215
7.641042 30
7.666193 168
7.691345 13
7.716497 117
7.741649 57
7.7668   90
7.791953 0
7.817104 115
7.842256 25
7.867408 33
7.89256  146
7.917712 140
7.942863 109
7.968015 83
7.993167 160
8.018319 80
8.04347  83
8.068623 233
8.093775 86
8.118926 223
8.144078 242
8.16923  288
8.194382 370
8.219534 396
8.244685 541
8.269837 665
8.294989 730
8.320141 1073
8.345292 1130
8.370444 1288
8.395597 996
8.420748 608
8.4459   316
8.471051 196
8.496203 81
8.521356 161
8.546507 124
8.571659 45
8.59681  130
8.621963 2
8.647115 39
8.672266 13
8.697418 43
8.722569 149
8.747722 11
8.772874 132
8.798025 46
8.823177 174
8.848329 43
8.873481 123
8.898633 166
8.923784 127
8.948936 31
8.974088 126
8.99924  79
9.024392 63
9.049543 83
9.074696 68
9.099847 202
9.124999 134
9.150151 46
9.175303 118
9.200455 25
9.225606 54
9.250758 50
9.27591  4
9.301062 43
9.326214 70
9.351365 18
9.376517 34
9.40167  25
9.426821 16
9.451973 0
9.477124 65
9.502276 18
9.527429 9
9.55258  38
9.577732 104
9.602883 9
9.628036 11
9.653188 84
9.678339 8
9.703491 97
9.728642 15
9.753795 10
9.778947 1
9.804098 11
9.82925  9
9.854402 69
9.879554 0
9.904706 27
9.929857 27
9.955009 0
9.980161 24
10.00531 20
