Commander Sample ID
5.0001   6
5.025252 6
5.050404 114
5.075556 127
5.100708 0
5.125859 25
5.151011 0
5.176163 50
5.201315 17
5.226467 50
5.251618 140
5.27677  10
5.301922 120
5.327074 26
5.352226 0
5.377378 0
5.402529 0
5.427681 62
5.452833 65
5.477985 0
5.503137 17
5.528288 19
5.55344  0
5.578592 10
5.603744 26
5.628896 0
5.654047 67
5.679199 67
5.704351 0
5.729503 154
5.754655 0
5.779807 21
5.804958 0
5.83011  0
5.855262 18
5.880414 3
5.905566 140
5.930717 0
5.955869 66
5.981021 0
6.006173 78
6.031325 0
6.056477 0
6.081628 0
6.106781 0
6.131932 57
6.157084 0
6.182236 0
6.207387 9
6.23254  0
6.257691 47
6.282843 55
6.307995 0
6.333147 0
6.358299 20
6.383451 0
6.408602 0
6.433754 60
6.458906 0
6.484058 64
6.50921  27
6.534361 0
6.559513 223
6.584665 37
6.609817 88
6.634969 18
6.66012  131
6.685272 82
6.710424 287
6.735576 75
6.760728 175
6.78588  65
6.811031 270
6.836183 307
6.861335 213
6.886487 225
6.911639 438
6.93679  368
6.961942 438
6.987094 547
7.012246 734
7.037398 748
7.06255  954
7.087701 1107
7.112853 1488
7.138005 1980
7.163157 2901
7.188309 3066
7.21346  3026
7.238612 2333
7.263764 1200
7.288916 396
7.314068 258
7.33922  142
7.364371 243
7.389524 172
7.414675 0
7.439827 66
7.464979 0
7.49013  75
7.515283 51
7.540434 60
7.565586 0
7.590738 24
7.61589  0
7.641042 76
7.666193 0
7.691345 21
7.716497 0
7.741649 0
7.7668   25
7.791953 0
7.817104 3
7.842256 0
7.867408 22
7.89256  7
7.917712 0
7.942863 64
7.968015 33
7.993167 7
8.018319 0
8.04347  165
8.068623 146
8.093775 80
8.118926 236
8.144078 220
8.16923  157
8.194382 337
8.219534 299
8.244685 521
8.269837 724
8.294989 688
8.320141 1045
8.345292 928
8.370444 892
8.395597 440
8.420748 69
8.4459   123
8.471051 16
8.496203 21
8.521356 0
8.546507 83
8.571659 0
8.59681  54
8.621963 27
8.647115 0
8.672266 5
8.697418 0
8.722569 86
8.747722 0
8.772874 0
8.798025 0
8.823177 0
8.848329 46
8.873481 0
8.898633 54
8.923784 51
8.948936 91
8.974088 113
8.99924  13
9.024392 57
9.049543 44
9.074696 18
9.099847 0
9.124999 63
9.150151 11
9.175303 29
9.200455 87
9.225606 24
9.250758 0
9.27591  96
9.301062 30
9.326214 20
9.351365 55
9.376517 48
9.40167  0
9.426821 89
9.451973 46
9.477124 110
9.502276 66
9.527429 18
9.55258  94
9.577732 21
9.602883 93
9.628036 86
9.653188 69
9.678339 83
9.703491 80
9.728642 94
9.753795 57
9.778947 35
9.804098 139
9.82925  29
9.854402 18
9.879554 7
9.904706 84
9.929857 0
9.955009 0
9.980161 62
10.00531 12
