Commander Sample ID
5.0001   154
5.025252 154
5.050404 126
5.075556 52
5.100708 165
5.125859 79
5.151011 0
5.176163 0
5.201315 89
5.226467 23
5.251618 0
5.27677  0
5.301922 0
5.327074 0
5.352226 0
5.377378 55
5.402529 0
5.427681 0
5.452833 0
5.477985 0
5.503137 0
5.528288 0
5.55344  10
5.578592 0
5.603744 0
5.628896 0
5.654047 0
5.679199 0
5.704351 0
5.729503 0
5.754655 0
5.779807 0
5.804958 0
5.83011  0
5.855262 0
5.880414 0
5.905566 0
5.930717 0
5.955869 0
5.981021 0
6.006173 0
6.031325 0
6.056477 0
6.081628 0
6.106781 0
6.131932 0
6.157084 0
6.182236 0
6.207387 4
6.23254  0
6.257691 0
6.282843 0
6.307995 0
6.333147 0
6.358299 0
6.383451 0
6.408602 0
6.433754 40
6.458906 0
6.484058 0
6.50921  43
6.534361 29
6.559513 51
6.584665 61
6.609817 64
6.634969 119
6.66012  188
6.685272 187
6.710424 318
6.735576 173
6.760728 239
6.78588  436
6.811031 416
6.836183 611
6.861335 767
6.886487 653
6.911639 792
6.93679  1009
6.961942 1189
6.987094 1357
7.012246 1442
7.037398 1761
7.06255  2031
7.087701 2313
7.112853 2841
7.138005 3369
7.163157 4646
7.188309 5810
7.21346  7141
7.238612 6808
7.263764 5333
7.288916 2971
7.314068 1069
7.33922  678
7.364371 329
7.389524 130
7.414675 25
7.439827 64
7.464979 108
7.49013  19
7.515283 16
7.540434 0
7.565586 24
7.590738 0
7.61589  0
7.641042 58
7.666193 0
7.691345 0
7.716497 0
7.741649 0
7.7668   0
7.791953 0
7.817104 0
7.842256 0
7.867408 111
7.89256  64
7.917712 35
7.942863 11
7.968015 97
7.993167 190
8.018319 89
8.04347  304
8.068623 339
8.093775 317
8.118926 359
8.144078 522
8.16923  520
8.194382 701
8.219534 792
8.244685 1091
8.269837 1286
8.294989 1687
8.320141 2247
8.345292 2672
8.370444 2739
8.395597 2428
8.420748 1343
8.4459   474
8.471051 271
8.496203 187
8.521356 8
8.546507 32
8.571659 0
8.59681  0
8.621963 0
8.647115 60
8.672266 6
8.697418 144
8.722569 105
8.747722 20
8.772874 93
8.798025 22
8.823177 0
8.848329 100
8.873481 11
8.898633 96
8.923784 102
8.948936 90
8.974088 11
8.99924  132
9.024392 76
9.049543 111
9.074696 76
9.099847 129
9.124999 173
9.150151 57
9.175303 185
9.200455 26
9.225606 159
9.250758 55
9.27591  95
9.301062 121
9.326214 110
9.351365 170
9.376517 128
9.40167  66
9.426821 156
9.451973 19
9.477124 183
9.502276 57
9.527429 193
9.55258  115
9.577732 136
9.602883 87
9.628036 232
9.653188 66
9.678339 83
9.703491 87
9.728642 36
9.753795 141
9.778947 51
9.804098 103
9.82925  60
9.854402 112
9.879554 19
9.904706 47
9.929857 7
9.955009 59
9.980161 0
10.00531 72
