Commander Sample ID
5.0001   0
5.025252 0
5.050404 104
5.075556 76
5.100708 105
5.125859 96
5.151011 96
5.176163 49
5.201315 99
5.226467 90
5.251618 63
5.27677  81
5.301922 114
5.327074 64
5.352226 0
5.377378 0
5.402529 18
5.427681 0
5.452833 0
5.477985 37
5.503137 0
5.528288 0
5.55344  0
5.578592 0
5.603744 0
5.628896 0
5.654047 0
5.679199 0
5.704351 0
5.729503 0
5.754655 40
5.779807 0
5.804958 0
5.83011  0
5.855262 0
5.880414 0
5.905566 0
5.930717 0
5.955869 0
5.981021 15
6.006173 0
6.031325 0
6.056477 0
6.081628 0
6.106781 0
6.131932 0
6.157084 0
6.182236 0
6.207387 0
6.23254  0
6.257691 0
6.282843 0
6.307995 4
6.333147 0
6.358299 52
6.383451 0
6.408602 17
6.433754 16
6.458906 78
6.484058 0
6.50921  29
6.534361 92
6.559513 8
6.584665 44
6.609817 71
6.634969 71
6.66012  177
6.685272 196
6.710424 206
6.735576 279
6.760728 288
6.78588  316
6.811031 246
6.836183 537
6.861335 492
6.886487 523
6.911639 713
6.93679  784
6.961942 969
6.987094 1123
7.012246 1239
7.037398 1449
7.06255  1534
7.087701 2125
7.112853 2412
7.138005 2939
7.163157 3458
7.188309 3851
7.21346  3725
7.238612 3442
7.263764 2135
7.288916 1377
7.314068 633
7.33922  337
7.364371 299
7.389524 140
7.414675 154
7.439827 65
7.464979 191
7.49013  124
7.515283 8
7.540434 0
7.565586 52
7.590738 0
7.61589  0
7.641042 0
7.666193 0
7.691345 0
7.716497 87
7.741649 0
7.7668   0
7.791953 14
7.817104 0
7.842256 0
7.867408 60
7.89256  26
7.917712 0
7.942863 92
7.968015 61
7.993167 67
8.018319 82
8.04347  199
8.068623 233
8.093775 326
8.118926 257
8.144078 519
8.16923  429
8.194382 614
8.219534 795
8.244685 828
8.269837 1139
8.294989 1536
8.320141 1620
8.345292 1692
8.370444 1539
8.395597 1034
8.420748 712
8.4459   305
8.471051 194
8.496203 139
8.521356 86
8.546507 95
8.571659 77
8.59681  116
8.621963 25
8.647115 108
8.672266 63
8.697418 128
8.722569 97
8.747722 34
8.772874 76
8.798025 141
8.823177 70
8.848329 102
8.873481 219
8.898633 81
8.923784 151
8.948936 122
8.974088 128
8.99924  202
9.024392 132
9.049543 99
9.074696 108
9.099847 107
9.124999 122
9.150151 160
9.175303 18
9.200455 83
9.225606 28
9.250758 96
9.27591  98
9.301062 88
9.326214 132
9.351365 28
9.376517 140
9.40167  84
9.426821 46
9.451973 66
9.477124 64
9.502276 64
9.527429 13
9.55258  103
9.577732 26
9.602883 0
9.628036 37
9.653188 63
9.678339 115
9.703491 46
9.728642 45
9.753795 64
9.778947 0
9.804098 0
9.82925  0
9.854402 0
9.879554 82
9.904706 16
9.929857 74
9.955009 1
9.980161 25
10.00531 23
