Commander Sample ID
5.0001   180
5.025252 180
5.050404 85
5.075556 71
5.100708 3
5.125859 73
5.151011 30
5.176163 0
5.201315 100
5.226467 98
5.251618 36
5.27677  138
5.301922 21
5.327074 127
5.352226 0
5.377378 0
5.402529 106
5.427681 0
5.452833 73
5.477985 47
5.503137 140
5.528288 20
5.55344  54
5.578592 0
5.603744 23
5.628896 65
5.654047 0
5.679199 117
5.704351 46
5.729503 43
5.754655 0
5.779807 0
5.804958 54
5.83011  52
5.855262 130
5.880414 103
5.905566 72
5.930717 53
5.955869 98
5.981021 138
6.006173 93
6.031325 127
6.056477 117
6.081628 109
6.106781 128
6.131932 133
6.157084 106
6.182236 219
6.207387 198
6.23254  124
6.257691 181
6.282843 201
6.307995 379
6.333147 146
6.358299 272
6.383451 343
6.408602 471
6.433754 364
6.458906 410
6.484058 420
6.50921  394
6.534361 544
6.559513 517
6.584665 521
6.609817 676
6.634969 673
6.66012  783
6.685272 779
6.710424 812
6.735576 998
6.760728 957
6.78588  1062
6.811031 1078
6.836183 1048
6.861335 1115
6.886487 1177
6.911639 1254
6.93679  1229
6.961942 1233
6.987094 1204
7.012246 1127
7.037398 1259
7.06255  1042
7.087701 1232
7.112853 1053
7.138005 1145
7.163157 1080
7.188309 1126
7.21346  1138
7.238612 1019
7.263764 952
7.288916 932
7.314068 934
7.33922  834
7.364371 726
7.389524 582
7.414675 590
7.439827 624
7.464979 390
7.49013  577
7.515283 363
7.540434 380
7.565586 392
7.590738 162
7.61589  297
7.641042 245
7.666193 147
7.691345 189
7.716497 147
7.741649 81
7.7668   130
7.791953 119
7.817104 132
7.842256 45
7.867408 111
7.89256  84
7.917712 108
7.942863 121
7.968015 1
7.993167 139
8.018319 12
8.04347  118
8.068623 42
8.093775 118
8.118926 3
8.144078 8
8.16923  39
8.194382 23
8.219534 71
8.244685 13
8.269837 0
8.294989 23
8.320141 98
8.345292 11
8.370444 106
8.395597 53
8.420748 26
8.4459   5
8.471051 92
8.496203 18
8.521356 42
8.546507 0
8.571659 2
8.59681  20
8.621963 21
8.647115 51
8.672266 161
8.697418 8
8.722569 135
8.747722 43
8.772874 49
8.798025 181
8.823177 29
8.848329 76
8.873481 14
8.898633 89
8.923784 126
8.948936 13
8.974088 107
8.99924  95
9.024392 65
9.049543 151
9.074696 16
9.099847 101
9.124999 38
9.150151 14
9.175303 124
9.200455 69
9.225606 94
9.250758 1
9.27591  88
9.301062 98
9.326214 82
9.351365 138
9.376517 76
9.40167  17
9.426821 94
9.451973 157
9.477124 87
9.502276 59
9.527429 208
9.55258  179
9.577732 106
9.602883 140
9.628036 0
9.653188 154
9.678339 10
9.703491 175
9.728642 124
9.753795 106
9.778947 55
9.804098 57
9.82925  36
9.854402 164
9.879554 7
9.904706 10
9.929857 61
9.955009 0
9.980161 29
10.00531 20
