Commander Sample ID
5.0001   89
5.025252 89
5.050404 19
5.075556 134
5.100708 57
5.125859 85
5.151011 131
5.176163 124
5.201315 1
5.226467 0
5.251618 82
5.27677  98
5.301922 29
5.327074 82
5.352226 72
5.377378 58
5.402529 55
5.427681 51
5.452833 32
5.477985 0
5.503137 176
5.528288 0
5.55344  116
5.578592 0
5.603744 1
5.628896 1
5.654047 114
5.679199 0
5.704351 0
5.729503 215
5.754655 71
5.779807 57
5.804958 32
5.83011  6
5.855262 139
5.880414 70
5.905566 12
5.930717 119
5.955869 5
5.981021 10
6.006173 20
6.031325 142
6.056477 198
6.081628 111
6.106781 5
6.131932 24
6.157084 2
6.182236 51
6.207387 90
6.23254  0
6.257691 65
6.282843 29
6.307995 135
6.333147 3
6.358299 60
6.383451 0
6.408602 0
6.433754 43
6.458906 142
6.484058 17
6.50921  11
6.534361 45
6.559513 91
6.584665 31
6.609817 0
6.634969 100
6.66012  25
6.685272 170
6.710424 23
6.735576 124
6.760728 15
6.78588  104
6.811031 114
6.836183 44
6.861335 102
6.886487 96
6.911639 132
6.93679  199
6.961942 58
6.987094 250
7.012246 320
7.037398 401
7.06255  244
7.087701 591
7.112853 638
7.138005 708
7.163157 1111
7.188309 1351
7.21346  1643
7.238612 2483
7.263764 2670
7.288916 1898
7.314068 663
7.33922  195
7.364371 160
7.389524 56
7.414675 1
7.439827 0
7.464979 110
7.49013  0
7.515283 22
7.540434 40
7.565586 86
7.590738 42
7.61589  0
7.641042 65
7.666193 103
7.691345 0
7.716497 1
7.741649 67
7.7668   136
7.791953 92
7.817104 40
7.842256 7
7.867408 4
7.89256  53
7.917712 88
7.942863 79
7.968015 143
7.993167 56
8.018319 9
8.04347  18
8.068623 63
8.093775 0
8.118926 212
8.144078 102
8.16923  184
8.194382 205
8.219534 145
8.244685 285
8.269837 279
8.294989 319
8.320141 517
8.345292 870
8.370444 992
8.395597 1527
8.420748 1155
8.4459   531
8.471051 119
8.496203 90
8.521356 64
8.546507 3
8.571659 0
8.59681  108
8.621963 59
8.647115 20
8.672266 17
8.697418 0
8.722569 36
8.747722 41
8.772874 0
8.798025 115
8.823177 10
8.848329 77
8.873481 5
8.898633 97
8.923784 101
8.948936 44
8.974088 66
8.99924  39
9.024392 72
9.049543 66
9.074696 54
9.099847 99
9.124999 102
9.150151 86
9.175303 49
9.200455 99
9.225606 133
9.250758 80
9.27591  118
9.301062 78
9.326214 73
9.351365 84
9.376517 164
9.40167  35
9.426821 23
9.451973 146
9.477124 8
9.502276 114
9.527429 36
9.55258  133
9.577732 68
9.602883 117
9.628036 99
9.653188 42
9.678339 96
9.703491 43
9.728642 78
9.753795 38
9.778947 0
9.804098 65
9.82925  103
9.854402 62
9.879554 7
9.904706 0
9.929857 7
9.955009 0
9.980161 72
10.00531 21
