Commander Sample ID
5.0001   120
5.025252 120
5.050404 143
5.075556 119
5.100708 33
5.125859 20
5.151011 89
5.176163 24
5.201315 65
5.226467 8
5.251618 5
5.27677  42
5.301922 0
5.327074 0
5.352226 97
5.377378 0
5.402529 17
5.427681 0
5.452833 0
5.477985 46
5.503137 0
5.528288 0
5.55344  0
5.578592 0
5.603744 0
5.628896 33
5.654047 0
5.679199 0
5.704351 86
5.729503 6
5.754655 0
5.779807 42
5.804958 33
5.83011  0
5.855262 0
5.880414 0
5.905566 0
5.930717 0
5.955869 0
5.981021 0
6.006173 0
6.031325 0
6.056477 0
6.081628 0
6.106781 0
6.131932 0
6.157084 0
6.182236 0
6.207387 0
6.23254  0
6.257691 0
6.282843 0
6.307995 0
6.333147 0
6.358299 2
6.383451 0
6.408602 62
6.433754 1
6.458906 4
6.484058 0
6.50921  50
6.534361 69
6.559513 34
6.584665 62
6.609817 0
6.634969 0
6.66012  0
6.685272 96
6.710424 135
6.735576 0
6.760728 211
6.78588  67
6.811031 109
6.836183 196
6.861335 211
6.886487 213
6.911639 374
6.93679  367
6.961942 563
6.987094 795
7.012246 653
7.037398 974
7.06255  915
7.087701 1173
7.112853 1736
7.138005 2377
7.163157 3135
7.188309 4255
7.21346  4104
7.238612 4131
7.263764 4092
7.288916 2558
7.314068 755
7.33922  387
7.364371 183
7.389524 103
7.414675 48
7.439827 208
7.464979 62
7.49013  31
7.515283 61
7.540434 0
7.565586 56
7.590738 37
7.61589  64
7.641042 2
7.666193 0
7.691345 0
7.716497 65
7.741649 28
7.7668   132
7.791953 58
7.817104 29
7.842256 89
7.867408 134
7.89256  2
7.917712 297
7.942863 85
7.968015 192
7.993167 70
8.018319 165
8.04347  97
8.068623 91
8.093775 244
8.118926 251
8.144078 368
8.16923  341
8.194382 336
8.219534 499
8.244685 577
8.269837 886
8.294989 987
8.320141 1175
8.345292 1268
8.370444 1381
8.395597 1609
8.420748 1175
8.4459   414
8.471051 219
8.496203 43
8.521356 131
8.546507 40
8.571659 161
8.59681  84
8.621963 64
8.647115 139
8.672266 71
8.697418 82
8.722569 97
8.747722 111
8.772874 44
8.798025 143
8.823177 95
8.848329 138
8.873481 57
8.898633 132
8.923784 115
8.948936 211
8.974088 35
8.99924  96
9.024392 202
9.049543 38
9.074696 195
9.099847 84
9.124999 159
9.150151 101
9.175303 111
9.200455 99
9.225606 80
9.250758 90
9.27591  113
9.301062 99
9.326214 16
9.351365 227
9.376517 27
9.40167  156
9.426821 52
9.451973 61
9.477124 167
9.502276 111
9.527429 94
9.55258  81
9.577732 164
9.602883 75
9.628036 113
9.653188 123
9.678339 158
9.703491 51
9.728642 188
9.753795 106
9.778947 2
9.804098 114
9.82925  107
9.854402 144
9.879554 35
9.904706 81
9.929857 69
9.955009 23
9.980161 29
10.00531 11
