Commander Sample ID
5.0001   109
5.025252 109
5.050404 35
5.075556 67
5.100708 52
5.125859 109
5.151011 157
5.176163 124
5.201315 71
5.226467 189
5.251618 13
5.27677  87
5.301922 89
5.327074 17
5.352226 0
5.377378 0
5.402529 123
5.427681 26
5.452833 98
5.477985 0
5.503137 6
5.528288 9
5.55344  22
5.578592 11
5.603744 100
5.628896 0
5.654047 65
5.679199 103
5.704351 0
5.729503 0
5.754655 0
5.779807 44
5.804958 0
5.83011  49
5.855262 81
5.880414 93
5.905566 0
5.930717 87
5.955869 0
5.981021 87
6.006173 29
6.031325 37
6.056477 136
6.081628 0
6.106781 16
6.131932 110
6.157084 0
6.182236 75
6.207387 35
6.23254  108
6.257691 0
6.282843 60
6.307995 72
6.333147 0
6.358299 0
6.383451 123
6.408602 0
6.433754 130
6.458906 78
6.484058 50
6.50921  107
6.534361 137
6.559513 122
6.584665 160
6.609817 154
6.634969 65
6.66012  146
6.685272 225
6.710424 132
6.735576 336
6.760728 106
6.78588  383
6.811031 153
6.836183 320
6.861335 341
6.886487 328
6.911639 275
6.93679  619
6.961942 457
6.987094 710
7.012246 793
7.037398 830
7.06255  979
7.087701 1069
7.112853 1507
7.138005 1654
7.163157 2068
7.188309 3020
7.21346  4723
7.238612 6005
7.263764 5325
7.288916 2882
7.314068 786
7.33922  460
7.364371 252
7.389524 186
7.414675 11
7.439827 126
7.464979 32
7.49013  59
7.515283 54
7.540434 0
7.565586 0
7.590738 0
7.61589  50
7.641042 0
7.666193 0
7.691345 0
7.716497 0
7.741649 0
7.7668   6
7.791953 0
7.817104 14
7.842256 52
7.867408 33
7.89256  4
7.917712 115
7.942863 93
7.968015 82
7.993167 49
8.018319 81
8.04347  12
8.068623 156
8.093775 134
8.118926 248
8.144078 193
8.16923  320
8.194382 221
8.219534 435
8.244685 454
8.269837 588
8.294989 711
8.320141 1080
8.345292 1442
8.370444 1846
8.395597 1824
8.420748 974
8.4459   419
8.471051 93
8.496203 48
8.521356 19
8.546507 0
8.571659 77
8.59681  57
8.621963 39
8.647115 23
8.672266 19
8.697418 47
8.722569 79
8.747722 0
8.772874 36
8.798025 41
8.823177 18
8.848329 151
8.873481 26
8.898633 159
8.923784 30
8.948936 53
8.974088 15
8.99924  55
9.024392 95
9.049543 30
9.074696 129
9.099847 100
9.124999 63
9.150151 186
9.175303 102
9.200455 65
9.225606 154
9.250758 77
9.27591  192
9.301062 64
9.326214 75
9.351365 112
9.376517 102
9.40167  135
9.426821 52
9.451973 81
9.477124 91
9.502276 66
9.527429 120
9.55258  6
9.577732 49
9.602883 70
9.628036 96
9.653188 4
9.678339 168
9.703491 87
9.728642 82
9.753795 74
9.778947 151
9.804098 32
9.82925  33
9.854402 35
9.879554 48
9.904706 78
9.929857 0
9.955009 89
9.980161 0
10.00531 8
