Commander Sample ID
5.0001   26
5.025252 26
5.050404 23
5.075556 34
5.100708 21
5.125859 33
5.151011 65
5.176163 61
5.201315 100
5.226467 37
5.251618 175
5.27677  88
5.301922 233
5.327074 156
5.352226 185
5.377378 264
5.402529 258
5.427681 359
5.452833 421
5.477985 457
5.503137 507
5.528288 589
5.55344  677
5.578592 777
5.603744 883
5.628896 1065
5.654047 1115
5.679199 1364
5.704351 1548
5.729503 1843
5.754655 1994
5.779807 2400
5.804958 2758
5.83011  3388
5.855262 4114
5.880414 4880
5.905566 5763
5.930717 6350
5.955869 6662
5.981021 6419
6.006173 5651
6.031325 4336
6.056477 3118
6.081628 2031
6.106781 1449
6.131932 910
6.157084 669
6.182236 515
6.207387 433
6.23254  361
6.257691 237
6.282843 286
6.307995 207
6.333147 177
6.358299 152
6.383451 184
6.408602 79
6.433754 65
6.458906 184
6.484058 61
6.50921  124
6.534361 103
6.559513 0
6.584665 111
6.609817 57
6.634969 10
6.66012  73
6.685272 48
6.710424 0
6.735576 7
6.760728 35
6.78588  14
6.811031 0
6.836183 5
6.861335 46
6.886487 1
6.911639 3
6.93679  19
6.961942 62
6.987094 58
7.012246 0
7.037398 0
7.06255  18
7.087701 49
7.112853 0
7.138005 37
7.163157 8
7.188309 39
7.21346  4
7.238612 8
7.263764 36
7.288916 6
7.314068 46
7.33922  16
7.364371 78
7.389524 38
7.414675 19
7.439827 19
7.464979 42
7.49013  57
7.515283 7
7.540434 20
7.565586 80
7.590738 53
7.61589  29
7.641042 38
7.666193 29
7.691345 55
7.716497 97
7.741649 33
7.7668   96
7.791953 48
7.817104 34
7.842256 104
7.867408 56
7.89256  115
7.917712 78
7.942863 118
7.968015 124
7.993167 68
8.018319 110
8.04347  166
8.068623 126
8.093775 207
8.118926 200
8.144078 206
8.16923  220
8.194382 328
8.219534 288
8.244685 384
8.269837 491
8.294989 538
8.320141 511
8.345292 665
8.370444 773
8.395597 915
8.420748 1056
8.4459   1002
8.471051 1083
8.496203 907
8.521356 888
8.546507 754
8.571659 513
8.59681  515
8.621963 379
8.647115 371
8.672266 332
8.697418 200
8.722569 254
8.747722 154
8.772874 172
8.798025 192
8.823177 140
8.848329 124
8.873481 170
8.898633 50
8.923784 232
8.948936 72
8.974088 179
8.99924  61
9.024392 182
9.049543 98
9.074696 86
9.099847 179
9.124999 22
9.150151 134
9.175303 72
9.200455 66
9.225606 59
9.250758 74
9.27591  106
9.301062 90
9.326214 115
9.351365 32
9.376517 56
9.40167  55
9.426821 65
9.451973 72
9.477124 107
9.502276 33
9.527429 40
9.55258  81
9.577732 40
9.602883 92
9.628036 41
9.653188 35
9.678339 81
9.703491 36
9.728642 40
9.753795 37
9.778947 0
9.804098 12
9.82925  45
9.854402 22
9.879554 38
9.904706 0
9.929857 7
9.955009 61
9.980161 0
10.00531 83
