Commander Sample ID
5.0001   10
5.025252 10
5.050404 0
5.075556 43
5.100708 0
5.125859 0
5.151011 35
5.176163 10
5.201315 5
5.226467 17
5.251618 0
5.27677  26
5.301922 17
5.327074 0
5.352226 0
5.377378 0
5.402529 11
5.427681 0
5.452833 0
5.477985 0
5.503137 0
5.528288 0
5.55344  12
5.578592 3
5.603744 47
5.628896 4
5.654047 27
5.679199 0
5.704351 0
5.729503 29
5.754655 2
5.779807 7
5.804958 0
5.83011  0
5.855262 0
5.880414 0
5.905566 0
5.930717 3
5.955869 0
5.981021 0
6.006173 20
6.031325 37
6.056477 0
6.081628 0
6.106781 16
6.131932 0
6.157084 23
6.182236 0
6.207387 42
6.23254  0
6.257691 2
6.282843 33
6.307995 24
6.333147 21
6.358299 56
6.383451 26
6.408602 34
6.433754 7
6.458906 80
6.484058 67
6.50921  30
6.534361 126
6.559513 109
6.584665 98
6.609817 150
6.634969 103
6.66012  134
6.685272 216
6.710424 140
6.735576 207
6.760728 194
6.78588  236
6.811031 222
6.836183 273
6.861335 335
6.886487 255
6.911639 337
6.93679  313
6.961942 317
6.987094 373
7.012246 272
7.037398 421
7.06255  311
7.087701 375
7.112853 325
7.138005 377
7.163157 382
7.188309 425
7.21346  405
7.238612 424
7.263764 472
7.288916 353
7.314068 373
7.33922  300
7.364371 347
7.389524 254
7.414675 260
7.439827 231
7.464979 208
7.49013  141
7.515283 211
7.540434 130
7.565586 112
7.590738 159
7.61589  88
7.641042 107
7.666193 45
7.691345 104
7.716497 53
7.741649 85
7.7668   48
7.791953 39
7.817104 70
7.842256 61
7.867408 77
7.89256  18
7.917712 107
7.942863 21
7.968015 28
7.993167 48
8.018319 30
8.04347  15
8.068623 53
8.093775 3
8.118926 38
8.144078 45
8.16923  0
8.194382 28
8.219534 71
8.244685 44
8.269837 14
8.294989 61
8.320141 18
8.345292 54
8.370444 35
8.395597 64
8.420748 25
8.4459   74
8.471051 15
8.496203 82
8.521356 45
8.546507 0
8.571659 23
8.59681  48
8.621963 25
8.647115 6
8.672266 5
8.697418 15
8.722569 0
8.747722 31
8.772874 6
8.798025 6
8.823177 0
8.848329 0
8.873481 37
8.898633 5
8.923784 3
8.948936 7
8.974088 1
8.99924  0
9.024392 0
9.049543 5
9.074696 0
9.099847 0
9.124999 39
9.150151 40
9.175303 22
9.200455 0
9.225606 0
9.250758 0
9.27591  0
9.301062 20
9.326214 0
9.351365 31
9.376517 0
9.40167  22
9.426821 22
9.451973 10
9.477124 31
9.502276 15
9.527429 28
9.55258  0
9.577732 12
9.602883 0
9.628036 0
9.653188 16
9.678339 8
9.703491 14
9.728642 42
9.753795 0
9.778947 6
9.804098 0
9.82925  37
9.854402 0
9.879554 57
9.904706 52
9.929857 0
9.955009 0
9.980161 0
10.00531 0
