Commander Sample ID
5.0001   3
5.025252 3
5.050404 29
5.075556 13
5.100708 2
5.125859 7
5.151011 0
5.176163 38
5.201315 0
5.226467 13
5.251618 0
5.27677  0
5.301922 21
5.327074 0
5.352226 0
5.377378 0
5.402529 16
5.427681 38
5.452833 34
5.477985 0
5.503137 0
5.528288 0
5.55344  0
5.578592 27
5.603744 4
5.628896 0
5.654047 14
5.679199 9
5.704351 0
5.729503 16
5.754655 2
5.779807 0
5.804958 14
5.83011  0
5.855262 0
5.880414 0
5.905566 28
5.930717 1
5.955869 0
5.981021 35
6.006173 15
6.031325 22
6.056477 45
6.081628 32
6.106781 0
6.131932 32
6.157084 0
6.182236 3
6.207387 26
6.23254  15
6.257691 19
6.282843 27
6.307995 51
6.333147 0
6.358299 0
6.383451 73
6.408602 16
6.433754 62
6.458906 31
6.484058 72
6.50921  60
6.534361 57
6.559513 60
6.584665 52
6.609817 100
6.634969 98
6.66012  57
6.685272 121
6.710424 133
6.735576 174
6.760728 197
6.78588  181
6.811031 243
6.836183 230
6.861335 324
6.886487 353
6.911639 361
6.93679  376
6.961942 560
6.987094 565
7.012246 628
7.037398 830
7.06255  922
7.087701 1173
7.112853 1491
7.138005 2079
7.163157 2820
7.188309 4228
7.21346  4925
7.238612 4296
7.263764 3549
7.288916 2245
7.314068 670
7.33922  325
7.364371 183
7.389524 128
7.414675 109
7.439827 91
7.464979 82
7.49013  80
7.515283 54
7.540434 32
7.565586 14
7.590738 59
7.61589  16
7.641042 59
7.666193 34
7.691345 40
7.716497 4
7.741649 0
7.7668   23
7.791953 22
7.817104 0
7.842256 26
7.867408 38
7.89256  24
7.917712 8
7.942863 75
7.968015 75
7.993167 67
8.018319 107
8.04347  109
8.068623 147
8.093775 153
8.118926 201
8.144078 205
8.16923  276
8.194382 321
8.219534 421
8.244685 603
8.269837 821
8.294989 1153
8.320141 1451
8.345292 1424
8.370444 1155
8.395597 1246
8.420748 717
8.4459   289
8.471051 109
8.496203 19
8.521356 53
8.546507 9
8.571659 0
8.59681  0
8.621963 38
8.647115 1
8.672266 0
8.697418 42
8.722569 3
8.747722 36
8.772874 46
8.798025 21
8.823177 23
8.848329 23
8.873481 5
8.898633 75
8.923784 16
8.948936 61
8.974088 67
8.99924  51
9.024392 41
9.049543 66
9.074696 40
9.099847 119
9.124999 70
9.150151 56
9.175303 84
9.200455 89
9.225606 59
9.250758 44
9.27591  109
9.301062 80
9.326214 71
9.351365 92
9.376517 75
9.40167  55
9.426821 72
9.451973 53
9.477124 86
9.502276 55
9.527429 73
9.55258  45
9.577732 127
9.602883 14
9.628036 112
9.653188 69
9.678339 72
9.703491 1
9.728642 80
9.753795 70
9.778947 3
9.804098 35
9.82925  3
9.854402 65
9.879554 2
9.904706 23
9.929857 11
9.955009 40
9.980161 10
10.00531 10
