Commander Sample ID
5.0001   18
5.025252 18
5.050404 22
5.075556 17
5.100708 43
5.125859 0
5.151011 46
5.176163 44
5.201315 63
5.226467 28
5.251618 0
5.27677  27
5.301922 27
5.327074 72
5.352226 3
5.377378 0
5.402529 6
5.427681 49
5.452833 19
5.477985 63
5.503137 24
5.528288 0
5.55344  44
5.578592 30
5.603744 4
5.628896 29
5.654047 0
5.679199 26
5.704351 25
5.729503 25
5.754655 24
5.779807 20
5.804958 50
5.83011  38
5.855262 33
5.880414 24
5.905566 6
5.930717 32
5.955869 0
5.981021 35
6.006173 0
6.031325 11
6.056477 23
6.081628 17
6.106781 0
6.131932 0
6.157084 42
6.182236 34
6.207387 6
6.23254  35
6.257691 23
6.282843 0
6.307995 0
6.333147 25
6.358299 21
6.383451 10
6.408602 7
6.433754 34
6.458906 12
6.484058 56
6.50921  13
6.534361 0
6.559513 16
6.584665 0
6.609817 66
6.634969 1
6.66012  25
6.685272 36
6.710424 57
6.735576 91
6.760728 55
6.78588  138
6.811031 84
6.836183 147
6.861335 115
6.886487 182
6.911639 206
6.93679  274
6.961942 267
6.987094 363
7.012246 438
7.037398 679
7.06255  775
7.087701 1166
7.112853 1563
7.138005 3003
7.163157 4561
7.188309 5692
7.21346  5443
7.238612 4055
7.263764 2248
7.288916 809
7.314068 338
7.33922  186
7.364371 165
7.389524 73
7.414675 106
7.439827 32
7.464979 43
7.49013  46
7.515283 0
7.540434 0
7.565586 0
7.590738 21
7.61589  8
7.641042 10
7.666193 0
7.691345 0
7.716497 0
7.741649 5
7.7668   4
7.791953 0
7.817104 0
7.842256 0
7.867408 0
7.89256  44
7.917712 9
7.942863 0
7.968015 0
7.993167 30
8.018319 32
8.04347  68
8.068623 25
8.093775 122
8.118926 88
8.144078 145
8.16923  198
8.194382 330
8.219534 458
8.244685 681
8.269837 956
8.294989 1538
8.320141 1628
8.345292 1867
8.370444 1421
8.395597 999
8.420748 366
8.4459   162
8.471051 8
8.496203 75
8.521356 76
8.546507 56
8.571659 40
8.59681  37
8.621963 7
8.647115 32
8.672266 40
8.697418 27
8.722569 0
8.747722 13
8.772874 13
8.798025 54
8.823177 25
8.848329 24
8.873481 5
8.898633 62
8.923784 24
8.948936 19
8.974088 0
8.99924  32
9.024392 32
9.049543 5
9.074696 11
9.099847 7
9.124999 0
9.150151 5
9.175303 0
9.200455 0
9.225606 0
9.250758 0
9.27591  0
9.301062 0
9.326214 29
9.351365 0
9.376517 0
9.40167  0
9.426821 35
9.451973 0
9.477124 23
9.502276 16
9.527429 35
9.55258  8
9.577732 18
9.602883 22
9.628036 31
9.653188 0
9.678339 0
9.703491 43
9.728642 18
9.753795 0
9.778947 19
9.804098 17
9.82925  0
9.854402 17
9.879554 33
9.904706 0
9.929857 42
9.955009 21
9.980161 0
10.00531 25
