Commander Sample ID
5.0001   23
5.025252 23
5.050404 17
5.075556 47
5.100708 28
5.125859 66
5.151011 42
5.176163 29
5.201315 25
5.226467 20
5.251618 29
5.27677  0
5.301922 0
5.327074 0
5.352226 0
5.377378 37
5.402529 60
5.427681 39
5.452833 0
5.477985 0
5.503137 0
5.528288 0
5.55344  41
5.578592 0
5.603744 13
5.628896 0
5.654047 34
5.679199 0
5.704351 0
5.729503 0
5.754655 0
5.779807 9
5.804958 0
5.83011  0
5.855262 0
5.880414 0
5.905566 5
5.930717 0
5.955869 0
5.981021 2
6.006173 0
6.031325 47
6.056477 0
6.081628 0
6.106781 45
6.131932 0
6.157084 0
6.182236 0
6.207387 21
6.23254  10
6.257691 0
6.282843 7
6.307995 22
6.333147 28
6.358299 0
6.383451 25
6.408602 35
6.433754 15
6.458906 41
6.484058 21
6.50921  50
6.534361 0
6.559513 27
6.584665 78
6.609817 5
6.634969 43
6.66012  56
6.685272 62
6.710424 120
6.735576 158
6.760728 159
6.78588  183
6.811031 150
6.836183 144
6.861335 233
6.886487 269
6.911639 395
6.93679  380
6.961942 462
6.987094 554
7.012246 647
7.037398 859
7.06255  1079
7.087701 1346
7.112853 1812
7.138005 2314
7.163157 3152
7.188309 4393
7.21346  5563
7.238612 6433
7.263764 6240
7.288916 4956
7.314068 2550
7.33922  915
7.364371 492
7.389524 327
7.414675 237
7.439827 135
7.464979 124
7.49013  141
7.515283 28
7.540434 78
7.565586 39
7.590738 96
7.61589  83
7.641042 26
7.666193 13
7.691345 86
7.716497 72
7.741649 0
7.7668   24
7.791953 42
7.817104 1
7.842256 0
7.867408 14
7.89256  26
7.917712 0
7.942863 73
7.968015 16
7.993167 57
8.018319 30
8.04347  85
8.068623 74
8.093775 191
8.118926 151
8.144078 268
8.16923  277
8.194382 355
8.219534 513
8.244685 650
8.269837 976
8.294989 1278
8.320141 1823
8.345292 2554
8.370444 2955
8.395597 2996
8.420748 2366
8.4459   1271
8.471051 520
8.496203 181
8.521356 202
8.546507 72
8.571659 101
8.59681  91
8.621963 0
8.647115 105
8.672266 1
8.697418 51
8.722569 36
8.747722 26
8.772874 30
8.798025 50
8.823177 42
8.848329 16
8.873481 66
8.898633 37
8.923784 1
8.948936 32
8.974088 58
8.99924  50
9.024392 45
9.049543 26
9.074696 64
9.099847 0
9.124999 39
9.150151 8
9.175303 26
9.200455 28
9.225606 4
9.250758 0
9.27591  23
9.301062 17
9.326214 21
9.351365 36
9.376517 2
9.40167  72
9.426821 18
9.451973 28
9.477124 46
9.502276 2
9.527429 75
9.55258  7
9.577732 53
9.602883 3
9.628036 17
9.653188 38
9.678339 6
9.703491 45
9.728642 36
9.753795 0
9.778947 63
9.804098 3
9.82925  45
9.854402 37
9.879554 29
9.904706 4
9.929857 23
9.955009 10
9.980161 20
10.00531 0
