Commander Sample ID
5.0001   0
5.025252 0
5.050404 56
5.075556 0
5.100708 37
5.125859 0
5.151011 25
5.176163 7
5.201315 20
5.226467 0
5.251618 61
5.27677  0
5.301922 16
5.327074 83
5.352226 72
5.377378 87
5.402529 25
5.427681 88
5.452833 80
5.477985 124
5.503137 144
5.528288 172
5.55344  131
5.578592 211
5.603744 232
5.628896 215
5.654047 220
5.679199 259
5.704351 376
5.729503 372
5.754655 432
5.779807 453
5.804958 591
5.83011  632
5.855262 716
5.880414 826
5.905566 788
5.930717 835
5.955869 825
5.981021 728
6.006173 584
6.031325 424
6.056477 279
6.081628 133
6.106781 121
6.131932 71
6.157084 99
6.182236 39
6.207387 41
6.23254  37
6.257691 32
6.282843 39
6.307995 36
6.333147 56
6.358299 52
6.383451 37
6.408602 4
6.433754 0
6.458906 27
6.484058 33
6.50921  0
6.534361 43
6.559513 30
6.584665 0
6.609817 9
6.634969 71
6.66012  11
6.685272 0
6.710424 37
6.735576 0
6.760728 0
6.78588  42
6.811031 0
6.836183 67
6.861335 8
6.886487 0
6.911639 7
6.93679  25
6.961942 4
6.987094 23
7.012246 20
7.037398 0
7.06255  23
7.087701 0
7.112853 51
7.138005 36
7.163157 0
7.188309 46
7.21346  32
7.238612 59
7.263764 32
7.288916 33
7.314068 0
7.33922  20
7.364371 30
7.389524 2
7.414675 50
7.439827 35
7.464979 0
7.49013  0
7.515283 21
7.540434 0
7.565586 22
7.590738 29
7.61589  25
7.641042 0
7.666193 26
7.691345 12
7.716497 5
7.741649 0
7.7668   52
7.791953 10
7.817104 21
7.842256 4
7.867408 46
7.89256  0
7.917712 36
7.942863 53
7.968015 17
7.993167 60
8.018319 65
8.04347  45
8.068623 65
8.093775 30
8.118926 70
8.144078 29
8.16923  67
8.194382 62
8.219534 120
8.244685 57
8.269837 79
8.294989 168
8.320141 99
8.345292 160
8.370444 106
8.395597 236
8.420748 153
8.4459   162
8.471051 183
8.496203 131
8.521356 141
8.546507 78
8.571659 84
8.59681  140
8.621963 64
8.647115 18
8.672266 61
8.697418 14
8.722569 89
8.747722 0
8.772874 47
8.798025 4
8.823177 55
8.848329 23
8.873481 0
8.898633 54
8.923784 52
8.948936 85
8.974088 78
8.99924  6
9.024392 13
9.049543 9
9.074696 52
9.099847 29
9.124999 15
9.150151 61
9.175303 11
9.200455 0
9.225606 0
9.250758 27
9.27591  0
9.301062 0
9.326214 0
9.351365 9
9.376517 44
9.40167  17
9.426821 14
9.451973 0
9.477124 41
9.502276 3
9.527429 0
9.55258  14
9.577732 82
9.602883 49
9.628036 0
9.653188 0
9.678339 32
9.703491 9
9.728642 8
9.753795 0
9.778947 30
9.804098 21
9.82925  0
9.854402 35
9.879554 0
9.904706 27
9.929857 28
9.955009 0
9.980161 39
10.00531 0
