Commander Sample ID
5.0001   22
5.025252 22
5.050404 189
5.075556 23
5.100708 136
5.125859 1
5.151011 0
5.176163 0
5.201315 5
5.226467 41
5.251618 37
5.27677  0
5.301922 0
5.327074 3
5.352226 0
5.377378 86
5.402529 0
5.427681 0
5.452833 0
5.477985 0
5.503137 0
5.528288 0
5.55344  0
5.578592 0
5.603744 0
5.628896 0
5.654047 0
5.679199 0
5.704351 0
5.729503 0
5.754655 25
5.779807 0
5.804958 0
5.83011  0
5.855262 116
5.880414 74
5.905566 0
5.930717 4
5.955869 26
5.981021 0
6.006173 0
6.031325 0
6.056477 0
6.081628 11
6.106781 0
6.131932 0
6.157084 27
6.182236 27
6.207387 0
6.23254  57
6.257691 0
6.282843 0
6.307995 0
6.333147 86
6.358299 0
6.383451 0
6.408602 0
6.433754 0
6.458906 127
6.484058 0
6.50921  75
6.534361 5
6.559513 132
6.584665 139
6.609817 251
6.634969 60
6.66012  53
6.685272 110
6.710424 271
6.735576 161
6.760728 224
6.78588  331
6.811031 327
6.836183 207
6.861335 482
6.886487 603
6.911639 499
6.93679  546
6.961942 782
6.987094 638
7.012246 930
7.037398 1188
7.06255  1275
7.087701 1474
7.112853 1673
7.138005 1957
7.163157 2350
7.188309 3094
7.21346  4219
7.238612 5211
7.263764 6725
7.288916 6176
7.314068 2668
7.33922  642
7.364371 454
7.389524 312
7.414675 55
7.439827 97
7.464979 11
7.49013  78
7.515283 166
7.540434 20
7.565586 96
7.590738 3
7.61589  0
7.641042 141
7.666193 86
7.691345 56
7.716497 0
7.741649 0
7.7668   44
7.791953 0
7.817104 6
7.842256 34
7.867408 0
7.89256  34
7.917712 65
7.942863 27
7.968015 78
7.993167 64
8.018319 194
8.04347  196
8.068623 205
8.093775 165
8.118926 213
8.144078 313
8.16923  377
8.194382 410
8.219534 539
8.244685 534
8.269837 724
8.294989 892
8.320141 1154
8.345292 1489
8.370444 1879
8.395597 2384
8.420748 2601
8.4459   1307
8.471051 294
8.496203 45
8.521356 9
8.546507 17
8.571659 0
8.59681  0
8.621963 0
8.647115 0
8.672266 100
8.697418 0
8.722569 57
8.747722 3
8.772874 0
8.798025 86
8.823177 82
8.848329 0
8.873481 41
8.898633 0
8.923784 0
8.948936 0
8.974088 33
8.99924  22
9.024392 39
9.049543 0
9.074696 0
9.099847 0
9.124999 36
9.150151 0
9.175303 4
9.200455 6
9.225606 32
9.250758 0
9.27591  37
9.301062 9
9.326214 76
9.351365 23
9.376517 41
9.40167  46
9.426821 2
9.451973 24
9.477124 47
9.502276 73
9.527429 45
9.55258  21
9.577732 61
9.602883 45
9.628036 87
9.653188 0
9.678339 119
9.703491 113
9.728642 85
9.753795 69
9.778947 20
9.804098 67
9.82925  69
9.854402 161
9.879554 73
9.904706 9
9.929857 0
9.955009 74
9.980161 61
10.00531 8
