Commander Sample ID
5.0001   86
5.025252 86
5.050404 46
5.075556 12
5.100708 23
5.125859 16
5.151011 60
5.176163 15
5.201315 65
5.226467 27
5.251618 6
5.27677  4
5.301922 27
5.327074 7
5.352226 0
5.377378 20
5.402529 0
5.427681 0
5.452833 46
5.477985 7
5.503137 36
5.528288 28
5.55344  30
5.578592 26
5.603744 1
5.628896 0
5.654047 0
5.679199 0
5.704351 17
5.729503 11
5.754655 10
5.779807 46
5.804958 0
5.83011  0
5.855262 16
5.880414 55
5.905566 33
5.930717 21
5.955869 25
5.981021 30
6.006173 81
6.031325 58
6.056477 36
6.081628 34
6.106781 73
6.131932 5
6.157084 63
6.182236 92
6.207387 79
6.23254  55
6.257691 12
6.282843 41
6.307995 120
6.333147 83
6.358299 47
6.383451 116
6.408602 75
6.433754 143
6.458906 116
6.484058 177
6.50921  88
6.534361 167
6.559513 219
6.584665 209
6.609817 259
6.634969 214
6.66012  283
6.685272 307
6.710424 395
6.735576 391
6.760728 485
6.78588  524
6.811031 517
6.836183 629
6.861335 672
6.886487 723
6.911639 804
6.93679  886
6.961942 958
6.987094 1067
7.012246 1296
7.037398 1425
7.06255  1698
7.087701 1959
7.112853 2460
7.138005 2805
7.163157 3536
7.188309 4198
7.21346  4897
7.238612 5346
7.263764 5149
7.288916 4267
7.314068 3004
7.33922  2075
7.364371 1199
7.389524 877
7.414675 694
7.439827 534
7.464979 431
7.49013  338
7.515283 318
7.540434 276
7.565586 124
7.590738 209
7.61589  71
7.641042 163
7.666193 79
7.691345 56
7.716497 75
7.741649 87
7.7668   0
7.791953 44
7.817104 22
7.842256 10
7.867408 66
7.89256  0
7.917712 34
7.942863 30
7.968015 44
7.993167 82
8.018319 35
8.04347  140
8.068623 81
8.093775 116
8.118926 103
8.144078 255
8.16923  272
8.194382 366
8.219534 457
8.244685 607
8.269837 751
8.294989 993
8.320141 1178
8.345292 1488
8.370444 1686
8.395597 1696
8.420748 1337
8.4459   962
8.471051 648
8.496203 348
8.521356 221
8.546507 136
8.571659 112
8.59681  120
8.621963 100
8.647115 80
8.672266 76
8.697418 64
8.722569 70
8.747722 28
8.772874 44
8.798025 49
8.823177 33
8.848329 85
8.873481 16
8.898633 0
8.923784 79
8.948936 59
8.974088 32
8.99924  79
9.024392 34
9.049543 44
9.074696 82
9.099847 30
9.124999 83
9.150151 8
9.175303 81
9.200455 41
9.225606 47
9.250758 94
9.27591  60
9.301062 50
9.326214 59
9.351365 47
9.376517 55
9.40167  59
9.426821 25
9.451973 23
9.477124 77
9.502276 34
9.527429 67
9.55258  53
9.577732 56
9.602883 61
9.628036 23
9.653188 71
9.678339 8
9.703491 17
9.728642 82
9.753795 25
9.778947 57
9.804098 52
9.82925  32
9.854402 16
9.879554 56
9.904706 28
9.929857 14
9.955009 0
9.980161 15
10.00531 0
