Commander Sample ID
5.0001   27
5.025252 27
5.050404 14
5.075556 0
5.100708 27
5.125859 0
5.151011 18
5.176163 19
5.201315 0
5.226467 25
5.251618 0
5.27677  12
5.301922 21
5.327074 0
5.352226 0
5.377378 0
5.402529 23
5.427681 0
5.452833 48
5.477985 0
5.503137 15
5.528288 0
5.55344  0
5.578592 3
5.603744 0
5.628896 31
5.654047 0
5.679199 17
5.704351 0
5.729503 0
5.754655 0
5.779807 0
5.804958 0
5.83011  0
5.855262 0
5.880414 0
5.905566 37
5.930717 0
5.955869 0
5.981021 0
6.006173 0
6.031325 0
6.056477 0
6.081628 0
6.106781 0
6.131932 0
6.157084 0
6.182236 0
6.207387 0
6.23254  0
6.257691 0
6.282843 0
6.307995 22
6.333147 14
6.358299 0
6.383451 8
6.408602 39
6.433754 0
6.458906 18
6.484058 0
6.50921  4
6.534361 71
6.559513 12
6.584665 61
6.609817 19
6.634969 66
6.66012  68
6.685272 116
6.710424 91
6.735576 77
6.760728 189
6.78588  137
6.811031 152
6.836183 194
6.861335 200
6.886487 254
6.911639 285
6.93679  256
6.961942 329
6.987094 378
7.012246 456
7.037398 513
7.06255  558
7.087701 697
7.112853 883
7.138005 1097
7.163157 1407
7.188309 1637
7.21346  1762
7.238612 2041
7.263764 1882
7.288916 1175
7.314068 402
7.33922  153
7.364371 76
7.389524 89
7.414675 15
7.439827 9
7.464979 43
7.49013  0
7.515283 61
7.540434 0
7.565586 0
7.590738 36
7.61589  15
7.641042 0
7.666193 14
7.691345 0
7.716497 26
7.741649 0
7.7668   0
7.791953 7
7.817104 34
7.842256 10
7.867408 0
7.89256  9
7.917712 83
7.942863 58
7.968015 30
7.993167 100
8.018319 4
8.04347  56
8.068623 77
8.093775 72
8.118926 137
8.144078 132
8.16923  126
8.194382 195
8.219534 262
8.244685 293
8.269837 479
8.294989 514
8.320141 585
8.345292 728
8.370444 766
8.395597 767
8.420748 501
8.4459   239
8.471051 54
8.496203 76
8.521356 25
8.546507 42
8.571659 32
8.59681  1
8.621963 41
8.647115 7
8.672266 36
8.697418 4
8.722569 94
8.747722 30
8.772874 32
8.798025 84
8.823177 56
8.848329 0
8.873481 34
8.898633 56
8.923784 51
8.948936 18
8.974088 0
8.99924  4
9.024392 23
9.049543 32
9.074696 53
9.099847 32
9.124999 22
9.150151 22
9.175303 50
9.200455 1
9.225606 19
9.250758 77
9.27591  34
9.301062 0
9.326214 0
9.351365 37
9.376517 62
9.40167  17
9.426821 3
9.451973 24
9.477124 0
9.502276 74
9.527429 73
9.55258  28
9.577732 48
9.602883 38
9.628036 6
9.653188 56
9.678339 14
9.703491 18
9.728642 66
9.753795 33
9.778947 0
9.804098 20
9.82925  5
9.854402 12
9.879554 22
9.904706 25
9.929857 2
9.955009 6
9.980161 0
10.00531 8
