Commander Sample ID
5.0001   18
5.025252 18
5.050404 11
5.075556 52
5.100708 8
5.125859 30
5.151011 0
5.176163 0
5.201315 0
5.226467 0
5.251618 28
5.27677  0
5.301922 8
5.327074 49
5.352226 0
5.377378 0
5.402529 5
5.427681 3
5.452833 0
5.477985 0
5.503137 0
5.528288 6
5.55344  3
5.578592 0
5.603744 31
5.628896 8
5.654047 11
5.679199 3
5.704351 23
5.729503 0
5.754655 0
5.779807 2
5.804958 0
5.83011  25
5.855262 0
5.880414 6
5.905566 6
5.930717 0
5.955869 10
5.981021 7
6.006173 0
6.031325 0
6.056477 0
6.081628 28
6.106781 0
6.131932 21
6.157084 18
6.182236 0
6.207387 0
6.23254  75
6.257691 9
6.282843 0
6.307995 0
6.333147 4
6.358299 98
6.383451 40
6.408602 0
6.433754 42
6.458906 36
6.484058 6
6.50921  86
6.534361 69
6.559513 21
6.584665 128
6.609817 128
6.634969 188
6.66012  101
6.685272 241
6.710424 167
6.735576 205
6.760728 215
6.78588  257
6.811031 344
6.836183 320
6.861335 433
6.886487 425
6.911639 489
6.93679  585
6.961942 691
6.987094 783
7.012246 931
7.037398 1077
7.06255  1320
7.087701 1625
7.112853 2076
7.138005 2571
7.163157 3142
7.188309 3467
7.21346  3459
7.238612 2876
7.263764 2192
7.288916 1492
7.314068 845
7.33922  474
7.364371 307
7.389524 208
7.414675 144
7.439827 91
7.464979 128
7.49013  59
7.515283 59
7.540434 35
7.565586 6
7.590738 60
7.61589  22
7.641042 0
7.666193 0
7.691345 0
7.716497 7
7.741649 28
7.7668   0
7.791953 42
7.817104 22
7.842256 0
7.867408 15
7.89256  0
7.917712 42
7.942863 86
7.968015 44
7.993167 122
8.018319 152
8.04347  104
8.068623 164
8.093775 203
8.118926 254
8.144078 272
8.16923  372
8.194382 540
8.219534 609
8.244685 924
8.269837 941
8.294989 1332
8.320141 1430
8.345292 1513
8.370444 1218
8.395597 976
8.420748 640
8.4459   332
8.471051 224
8.496203 139
8.521356 124
8.546507 83
8.571659 51
8.59681  56
8.621963 93
8.647115 6
8.672266 89
8.697418 61
8.722569 19
8.747722 48
8.772874 92
8.798025 13
8.823177 77
8.848329 24
8.873481 16
8.898633 60
8.923784 14
8.948936 68
8.974088 0
8.99924  77
9.024392 20
9.049543 68
9.074696 40
9.099847 10
9.124999 55
9.150151 66
9.175303 18
9.200455 15
9.225606 101
9.250758 1
9.27591  12
9.301062 31
9.326214 86
9.351365 20
9.376517 38
9.40167  46
9.426821 33
9.451973 21
9.477124 19
9.502276 58
9.527429 44
9.55258  37
9.577732 9
9.602883 59
9.628036 1
9.653188 26
9.678339 4
9.703491 1
9.728642 24
9.753795 19
9.778947 7
9.804098 0
9.82925  24
9.854402 33
9.879554 20
9.904706 58
9.929857 0
9.955009 7
9.980161 0
10.00531 8
