Commander Sample ID
5.0001   0
5.025252 0
5.050404 33
5.075556 3
5.100708 0
5.125859 0
5.151011 0
5.176163 0
5.201315 0
5.226467 0
5.251618 25
5.27677  0
5.301922 0
5.327074 22
5.352226 0
5.377378 0
5.402529 0
5.427681 0
5.452833 38
5.477985 0
5.503137 101
5.528288 70
5.55344  96
5.578592 41
5.603744 98
5.628896 131
5.654047 149
5.679199 238
5.704351 183
5.729503 380
5.754655 380
5.779807 533
5.804958 633
5.83011  817
5.855262 962
5.880414 1449
5.905566 1688
5.930717 1917
5.955869 1981
5.981021 1958
6.006173 1655
6.031325 1200
6.056477 936
6.081628 560
6.106781 302
6.131932 159
6.157084 74
6.182236 104
6.207387 16
6.23254  52
6.257691 8
6.282843 54
6.307995 19
6.333147 0
6.358299 30
6.383451 46
6.408602 23
6.433754 22
6.458906 35
6.484058 82
6.50921  82
6.534361 89
6.559513 94
6.584665 118
6.609817 196
6.634969 160
6.66012  140
6.685272 242
6.710424 225
6.735576 272
6.760728 239
6.78588  354
6.811031 273
6.836183 327
6.861335 368
6.886487 383
6.911639 359
6.93679  352
6.961942 338
6.987094 326
7.012246 395
7.037398 359
7.06255  427
7.087701 385
7.112853 357
7.138005 370
7.163157 300
7.188309 374
7.21346  305
7.238612 319
7.263764 231
7.288916 219
7.314068 214
7.33922  236
7.364371 208
7.389524 164
7.414675 185
7.439827 122
7.464979 87
7.49013  99
7.515283 37
7.540434 84
7.565586 45
7.590738 81
7.61589  15
7.641042 34
7.666193 0
7.691345 0
7.716497 74
7.741649 14
7.7668   53
7.791953 16
7.817104 2
7.842256 21
7.867408 65
7.89256  43
7.917712 83
7.942863 22
7.968015 13
7.993167 45
8.018319 1
8.04347  82
8.068623 53
8.093775 26
8.118926 60
8.144078 71
8.16923  99
8.194382 96
8.219534 120
8.244685 155
8.269837 190
8.294989 135
8.320141 172
8.345292 240
8.370444 248
8.395597 366
8.420748 342
8.4459   362
8.471051 294
8.496203 366
8.521356 331
8.546507 289
8.571659 262
8.59681  155
8.621963 155
8.647115 88
8.672266 131
8.697418 65
8.722569 80
8.747722 151
8.772874 94
8.798025 64
8.823177 74
8.848329 62
8.873481 112
8.898633 87
8.923784 83
8.948936 88
8.974088 50
8.99924  96
9.024392 43
9.049543 62
9.074696 27
9.099847 91
9.124999 42
9.150151 63
9.175303 42
9.200455 87
9.225606 69
9.250758 10
9.27591  69
9.301062 14
9.326214 87
9.351365 50
9.376517 48
9.40167  70
9.426821 3
9.451973 38
9.477124 44
9.502276 45
9.527429 16
9.55258  56
9.577732 40
9.602883 4
9.628036 20
9.653188 2
9.678339 57
9.703491 3
9.728642 47
9.753795 32
9.778947 39
9.804098 26
9.82925  10
9.854402 46
9.879554 30
9.904706 10
9.929857 3
9.955009 17
9.980161 21
10.00531 16
