Commander Sample ID
5.0001   50
5.025252 50
5.050404 39
5.075556 0
5.100708 0
5.125859 16
5.151011 6
5.176163 21
5.201315 25
5.226467 30
5.251618 19
5.27677  9
5.301922 16
5.327074 13
5.352226 12
5.377378 0
5.402529 0
5.427681 15
5.452833 0
5.477985 0
5.503137 0
5.528288 0
5.55344  16
5.578592 2
5.603744 10
5.628896 0
5.654047 21
5.679199 0
5.704351 0
5.729503 0
5.754655 0
5.779807 11
5.804958 3
5.83011  47
5.855262 0
5.880414 0
5.905566 0
5.930717 0
5.955869 0
5.981021 1
6.006173 0
6.031325 0
6.056477 0
6.081628 0
6.106781 0
6.131932 0
6.157084 0
6.182236 0
6.207387 0
6.23254  0
6.257691 12
6.282843 28
6.307995 1
6.333147 58
6.358299 12
6.383451 0
6.408602 6
6.433754 20
6.458906 23
6.484058 32
6.50921  43
6.534361 43
6.559513 26
6.584665 19
6.609817 75
6.634969 35
6.66012  52
6.685272 87
6.710424 128
6.735576 103
6.760728 92
6.78588  148
6.811031 111
6.836183 240
6.861335 182
6.886487 278
6.911639 225
6.93679  375
6.961942 458
6.987094 458
7.012246 633
7.037398 688
7.06255  882
7.087701 1090
7.112853 1631
7.138005 2178
7.163157 3269
7.188309 4093
7.21346  3734
7.238612 2557
7.263764 2155
7.288916 1371
7.314068 518
7.33922  170
7.364371 66
7.389524 71
7.414675 55
7.439827 73
7.464979 3
7.49013  40
7.515283 6
7.540434 4
7.565586 0
7.590738 1
7.61589  0
7.641042 0
7.666193 0
7.691345 22
7.716497 33
7.741649 0
7.7668   8
7.791953 0
7.817104 16
7.842256 15
7.867408 3
7.89256  29
7.917712 52
7.942863 78
7.968015 78
7.993167 31
8.018319 89
8.04347  90
8.068623 138
8.093775 125
8.118926 175
8.144078 204
8.16923  329
8.194382 361
8.219534 448
8.244685 666
8.269837 940
8.294989 1347
8.320141 1622
8.345292 1463
8.370444 1161
8.395597 962
8.420748 795
8.4459   386
8.471051 73
8.496203 87
8.521356 77
8.546507 47
8.571659 28
8.59681  40
8.621963 5
8.647115 79
8.672266 21
8.697418 13
8.722569 71
8.747722 45
8.772874 53
8.798025 21
8.823177 62
8.848329 24
8.873481 21
8.898633 67
8.923784 65
8.948936 19
8.974088 37
8.99924  40
9.024392 14
9.049543 0
9.074696 17
9.099847 44
9.124999 35
9.150151 55
9.175303 15
9.200455 0
9.225606 32
9.250758 18
9.27591  19
9.301062 27
9.326214 71
9.351365 45
9.376517 9
9.40167  25
9.426821 5
9.451973 28
9.477124 4
9.502276 44
9.527429 31
9.55258  24
9.577732 9
9.602883 36
9.628036 32
9.653188 23
9.678339 22
9.703491 13
9.728642 43
9.753795 48
9.778947 43
9.804098 9
9.82925  54
9.854402 27
9.879554 0
9.904706 0
9.929857 40
9.955009 12
9.980161 5
10.00531 0
