Commander Sample ID
5.0001   5
5.025252 5
5.050404 0
5.075556 41
5.100708 52
5.125859 38
5.151011 12
5.176163 0
5.201315 0
5.226467 0
5.251618 13
5.27677  0
5.301922 0
5.327074 0
5.352226 0
5.377378 0
5.402529 0
5.427681 0
5.452833 0
5.477985 0
5.503137 0
5.528288 0
5.55344  0
5.578592 0
5.603744 0
5.628896 0
5.654047 0
5.679199 0
5.704351 0
5.729503 0
5.754655 0
5.779807 0
5.804958 0
5.83011  0
5.855262 0
5.880414 0
5.905566 0
5.930717 0
5.955869 0
5.981021 0
6.006173 0
6.031325 0
6.056477 0
6.081628 0
6.106781 0
6.131932 0
6.157084 0
6.182236 0
6.207387 0
6.23254  0
6.257691 0
6.282843 0
6.307995 0
6.333147 0
6.358299 0
6.383451 20
6.408602 56
6.433754 0
6.458906 13
6.484058 13
6.50921  6
6.534361 18
6.559513 13
6.584665 0
6.609817 45
6.634969 25
6.66012  29
6.685272 76
6.710424 41
6.735576 97
6.760728 194
6.78588  134
6.811031 186
6.836183 184
6.861335 271
6.886487 285
6.911639 286
6.93679  395
6.961942 526
6.987094 544
7.012246 737
7.037398 781
7.06255  1104
7.087701 1339
7.112853 1726
7.138005 2324
7.163157 3215
7.188309 4000
7.21346  4554
7.238612 4253
7.263764 3572
7.288916 3206
7.314068 1840
7.33922  674
7.364371 279
7.389524 241
7.414675 168
7.439827 110
7.464979 151
7.49013  10
7.515283 80
7.540434 59
7.565586 85
7.590738 3
7.61589  126
7.641042 29
7.666193 28
7.691345 44
7.716497 17
7.741649 22
7.7668   23
7.791953 0
7.817104 57
7.842256 23
7.867408 16
7.89256  7
7.917712 66
7.942863 68
7.968015 86
7.993167 74
8.018319 124
8.04347  146
8.068623 163
8.093775 161
8.118926 264
8.144078 280
8.16923  329
8.194382 414
8.219534 460
8.244685 748
8.269837 1025
8.294989 1333
8.320141 1821
8.345292 2077
8.370444 1984
8.395597 1923
8.420748 1390
8.4459   1107
8.471051 373
8.496203 156
8.521356 101
8.546507 68
8.571659 80
8.59681  72
8.621963 20
8.647115 84
8.672266 0
8.697418 53
8.722569 33
8.747722 25
8.772874 7
8.798025 59
8.823177 0
8.848329 50
8.873481 31
8.898633 31
8.923784 28
8.948936 20
8.974088 4
8.99924  6
9.024392 2
9.049543 13
9.074696 25
9.099847 0
9.124999 42
9.150151 31
9.175303 14
9.200455 15
9.225606 0
9.250758 0
9.27591  41
9.301062 0
9.326214 33
9.351365 2
9.376517 16
9.40167  27
9.426821 0
9.451973 2
9.477124 32
9.502276 0
9.527429 12
9.55258  0
9.577732 0
9.602883 0
9.628036 11
9.653188 22
9.678339 16
9.703491 0
9.728642 12
9.753795 0
9.778947 0
9.804098 46
9.82925  0
9.854402 27
9.879554 0
9.904706 15
9.929857 6
9.955009 3
9.980161 0
10.00531 40
