Commander Sample ID
5.0001   1287
5.025252 1249
5.050404 1178
5.075556 1253
5.100708 1211
5.125859 1200
5.151011 1300
5.176163 1185
5.201315 1193
5.226467 1170
5.251618 1184
5.27677  1198
5.301922 1195
5.327074 1216
5.352226 1178
5.377378 1231
5.402529 1259
5.427681 1147
5.452833 1183
5.477985 1177
5.503137 1140
5.528288 1237
5.55344  1211
5.578592 1255
5.603744 1280
5.628896 1271
5.654047 1342
5.679199 1376
5.704351 1514
5.729503 1605
5.754655 1597
5.779807 1800
5.804958 2031
5.83011  2218
5.855262 2544
5.880414 3021
5.905566 3528
5.930717 4346
5.955869 4656
5.981021 4535
6.006173 3906
6.031325 2950
6.056477 2189
6.081628 1628
6.106781 1457
6.131932 1292
6.157084 1217
6.182236 1153
6.207387 1139
6.23254  1143
6.257691 1059
6.282843 1046
6.307995 1064
6.333147 1027
6.358299 1014
6.383451 1008
6.408602 987
6.433754 926
6.458906 978
6.484058 1031
6.50921  989
6.534361 987
6.559513 931
6.584665 994
6.609817 918
6.634969 846
6.66012  887
6.685272 920
6.710424 891
6.735576 878
6.760728 899
6.78588  925
6.811031 823
6.836183 889
6.861335 913
6.886487 846
6.911639 894
6.93679  893
6.961942 860
6.987094 903
7.012246 815
7.037398 868
7.06255  820
7.087701 862
7.112853 836
7.138005 852
7.163157 873
7.188309 915
7.21346  849
7.238612 841
7.263764 880
7.288916 846
7.314068 875
7.33922  789
7.364371 793
7.389524 799
7.414675 757
7.439827 804
7.464979 860
7.49013  818
7.515283 804
7.540434 833
7.565586 729
7.590738 782
7.61589  802
7.641042 791
7.666193 762
7.691345 805
7.716497 812
7.741649 766
7.7668   772
7.791953 825
7.817104 780
7.842256 707
7.867408 822
7.89256  725
7.917712 764
7.942863 774
7.968015 748
7.993167 769
8.018319 766
8.04347  793
8.068623 782
8.093775 766
8.118926 869
8.144078 843
8.16923  865
8.194382 880
8.219534 845
8.244685 920
8.269837 958
8.294989 996
8.320141 1015
8.345292 1123
8.370444 1197
8.395597 1390
8.420748 1462
8.4459   1448
8.471051 1479
8.496203 1387
8.521356 1285
8.546507 1185
8.571659 1094
8.59681  966
8.621963 950
8.647115 866
8.672266 878
8.697418 831
8.722569 758
8.747722 853
8.772874 760
8.798025 802
8.823177 746
8.848329 809
8.873481 780
8.898633 736
8.923784 777
8.948936 721
8.974088 722
8.99924  767
9.024392 747
9.049543 751
9.074696 787
9.099847 733
9.124999 703
9.150151 760
9.175303 731
9.200455 751
9.225606 784
9.250758 727
9.27591  741
9.301062 690
9.326214 739
9.351365 712
9.376517 724
9.40167  742
9.426821 695
9.451973 687
9.477124 782
9.502276 756
9.527429 722
9.55258  677
9.577732 705
9.602883 658
9.628036 667
9.653188 668
9.678339 662
9.703491 684
9.728642 699
9.753795 691
9.778947 680
9.804098 762
9.82925  634
9.854402 682
9.879554 676
9.904706 696
9.929857 694
9.955009 684
9.980161 685
10.00531 659
