Commander Sample ID
5.0001   0
5.025252 0
5.050404 75
5.075556 9
5.100708 17
5.125859 95
5.151011 36
5.176163 21
5.201315 0
5.226467 4
5.251618 36
5.27677  0
5.301922 1
5.327074 0
5.352226 32
5.377378 0
5.402529 20
5.427681 2
5.452833 0
5.477985 29
5.503137 21
5.528288 0
5.55344  1
5.578592 1
5.603744 0
5.628896 0
5.654047 0
5.679199 28
5.704351 0
5.729503 0
5.754655 0
5.779807 0
5.804958 0
5.83011  31
5.855262 0
5.880414 0
5.905566 0
5.930717 0
5.955869 0
5.981021 0
6.006173 0
6.031325 38
6.056477 0
6.081628 42
6.106781 11
6.131932 0
6.157084 0
6.182236 0
6.207387 9
6.23254  0
6.257691 5
6.282843 25
6.307995 10
6.333147 14
6.358299 15
6.383451 9
6.408602 46
6.433754 0
6.458906 31
6.484058 0
6.50921  10
6.534361 20
6.559513 63
6.584665 34
6.609817 17
6.634969 31
6.66012  55
6.685272 11
6.710424 54
6.735576 34
6.760728 87
6.78588  87
6.811031 113
6.836183 136
6.861335 124
6.886487 199
6.911639 172
6.93679  169
6.961942 218
6.987094 230
7.012246 306
7.037398 344
7.06255  511
7.087701 560
7.112853 822
7.138005 1317
7.163157 2164
7.188309 2885
7.21346  2742
7.238612 2412
7.263764 1536
7.288916 807
7.314068 241
7.33922  110
7.364371 110
7.389524 81
7.414675 117
7.439827 91
7.464979 62
7.49013  25
7.515283 75
7.540434 83
7.565586 57
7.590738 48
7.61589  38
7.641042 71
7.666193 39
7.691345 76
7.716497 38
7.741649 60
7.7668   86
7.791953 80
7.817104 43
7.842256 57
7.867408 21
7.89256  63
7.917712 62
7.942863 14
7.968015 49
7.993167 129
8.018319 77
8.04347  83
8.068623 66
8.093775 115
8.118926 126
8.144078 141
8.16923  67
8.194382 201
8.219534 200
8.244685 318
8.269837 404
8.294989 579
8.320141 832
8.345292 847
8.370444 656
8.395597 525
8.420748 252
8.4459   107
8.471051 119
8.496203 16
8.521356 59
8.546507 23
8.571659 63
8.59681  20
8.621963 25
8.647115 51
8.672266 74
8.697418 71
8.722569 25
8.747722 66
8.772874 10
8.798025 43
8.823177 21
8.848329 58
8.873481 37
8.898633 17
8.923784 33
8.948936 26
8.974088 56
8.99924  21
9.024392 10
9.049543 6
9.074696 53
9.099847 2
9.124999 69
9.150151 19
9.175303 0
9.200455 0
9.225606 0
9.250758 27
9.27591  2
9.301062 9
9.326214 5
9.351365 0
9.376517 44
9.40167  10
9.426821 0
9.451973 0
9.477124 1
9.502276 0
9.527429 11
9.55258  4
9.577732 4
9.602883 0
9.628036 0
9.653188 25
9.678339 0
9.703491 0
9.728642 20
9.753795 16
9.778947 0
9.804098 0
9.82925  2
9.854402 14
9.879554 0
9.904706 26
9.929857 2
9.955009 0
9.980161 40
10.00531 39
