Commander Sample ID
5.0001   10
5.025252 10
5.050404 0
5.075556 6
5.100708 3
5.125859 0
5.151011 0
5.176163 57
5.201315 0
5.226467 0
5.251618 0
5.27677  0
5.301922 0
5.327074 0
5.352226 0
5.377378 7
5.402529 15
5.427681 0
5.452833 0
5.477985 9
5.503137 0
5.528288 0
5.55344  0
5.578592 0
5.603744 37
5.628896 1
5.654047 0
5.679199 0
5.704351 0
5.729503 0
5.754655 0
5.779807 0
5.804958 0
5.83011  0
5.855262 0
5.880414 0
5.905566 0
5.930717 0
5.955869 0
5.981021 0
6.006173 0
6.031325 0
6.056477 0
6.081628 0
6.106781 11
6.131932 0
6.157084 0
6.182236 0
6.207387 0
6.23254  0
6.257691 14
6.282843 0
6.307995 0
6.333147 0
6.358299 0
6.383451 3
6.408602 0
6.433754 22
6.458906 0
6.484058 0
6.50921  57
6.534361 11
6.559513 0
6.584665 0
6.609817 0
6.634969 0
6.66012  0
6.685272 24
6.710424 35
6.735576 69
6.760728 71
6.78588  72
6.811031 79
6.836183 150
6.861335 72
6.886487 192
6.911639 194
6.93679  211
6.961942 265
6.987094 318
7.012246 363
7.037398 501
7.06255  595
7.087701 904
7.112853 1047
7.138005 1681
7.163157 2240
7.188309 3038
7.21346  3432
7.238612 3124
7.263764 2501
7.288916 1382
7.314068 620
7.33922  250
7.364371 227
7.389524 116
7.414675 92
7.439827 105
7.464979 47
7.49013  84
7.515283 80
7.540434 67
7.565586 41
7.590738 3
7.61589  70
7.641042 17
7.666193 35
7.691345 8
7.716497 51
7.741649 1
7.7668   11
7.791953 45
7.817104 5
7.842256 19
7.867408 36
7.89256  0
7.917712 15
7.942863 9
7.968015 54
7.993167 29
8.018319 61
8.04347  72
8.068623 59
8.093775 89
8.118926 76
8.144078 131
8.16923  122
8.194382 253
8.219534 252
8.244685 395
8.269837 587
8.294989 808
8.320141 1208
8.345292 1477
8.370444 1525
8.395597 1170
8.420748 826
8.4459   376
8.471051 108
8.496203 88
8.521356 31
8.546507 88
8.571659 65
8.59681  5
8.621963 30
8.647115 0
8.672266 35
8.697418 21
8.722569 0
8.747722 0
8.772874 27
8.798025 5
8.823177 8
8.848329 0
8.873481 0
8.898633 24
8.923784 4
8.948936 0
8.974088 0
8.99924  0
9.024392 31
9.049543 25
9.074696 0
9.099847 0
9.124999 0
9.150151 1
9.175303 10
9.200455 0
9.225606 0
9.250758 0
9.27591  0
9.301062 0
9.326214 10
9.351365 5
9.376517 0
9.40167  8
9.426821 0
9.451973 10
9.477124 0
9.502276 0
9.527429 4
9.55258  0
9.577732 28
9.602883 0
9.628036 0
9.653188 0
9.678339 20
9.703491 6
9.728642 0
9.753795 0
9.778947 29
9.804098 0
9.82925  47
9.854402 15
9.879554 0
9.904706 0
9.929857 30
9.955009 29
9.980161 13
10.00531 0
