Commander Sample ID
5.0001   32
5.025252 32
5.050404 6
5.075556 11
5.100708 0
5.125859 6
5.151011 39
5.176163 0
5.201315 0
5.226467 23
5.251618 14
5.27677  7
5.301922 40
5.327074 20
5.352226 0
5.377378 32
5.402529 42
5.427681 0
5.452833 53
5.477985 60
5.503137 80
5.528288 24
5.55344  128
5.578592 73
5.603744 164
5.628896 144
5.654047 237
5.679199 241
5.704351 358
5.729503 419
5.754655 462
5.779807 610
5.804958 655
5.83011  888
5.855262 1102
5.880414 1388
5.905566 1697
5.930717 2207
5.955869 2563
5.981021 3160
6.006173 3483
6.031325 3175
6.056477 2383
6.081628 1540
6.106781 1030
6.131932 606
6.157084 445
6.182236 345
6.207387 265
6.23254  208
6.257691 199
6.282843 139
6.307995 132
6.333147 152
6.358299 77
6.383451 91
6.408602 71
6.433754 78
6.458906 45
6.484058 8
6.50921  64
6.534361 30
6.559513 2
6.584665 26
6.609817 13
6.634969 40
6.66012  38
6.685272 14
6.710424 15
6.735576 12
6.760728 14
6.78588  46
6.811031 2
6.836183 32
6.861335 15
6.886487 9
6.911639 5
6.93679  0
6.961942 15
6.987094 45
7.012246 0
7.037398 35
7.06255  9
7.087701 0
7.112853 52
7.138005 32
7.163157 133
7.188309 135
7.21346  85
7.238612 24
7.263764 79
7.288916 23
7.314068 0
7.33922  14
7.364371 0
7.389524 13
7.414675 0
7.439827 17
7.464979 0
7.49013  0
7.515283 0
7.540434 0
7.565586 6
7.590738 0
7.61589  8
7.641042 26
7.666193 16
7.691345 0
7.716497 0
7.741649 53
7.7668   0
7.791953 3
7.817104 0
7.842256 60
7.867408 0
7.89256  22
7.917712 13
7.942863 0
7.968015 21
7.993167 2
8.018319 4
8.04347  68
8.068623 3
8.093775 58
8.118926 15
8.144078 85
8.16923  54
8.194382 67
8.219534 106
8.244685 96
8.269837 122
8.294989 190
8.320141 181
8.345292 274
8.370444 311
8.395597 290
8.420748 482
8.4459   500
8.471051 608
8.496203 648
8.521356 586
8.546507 472
8.571659 468
8.59681  327
8.621963 258
8.647115 213
8.672266 159
8.697418 174
8.722569 87
8.747722 86
8.772874 116
8.798025 80
8.823177 79
8.848329 102
8.873481 58
8.898633 59
8.923784 45
8.948936 20
8.974088 89
8.99924  40
9.024392 42
9.049543 54
9.074696 18
9.099847 14
9.124999 73
9.150151 59
9.175303 0
9.200455 86
9.225606 21
9.250758 6
9.27591  76
9.301062 1
9.326214 29
9.351365 10
9.376517 12
9.40167  6
9.426821 29
9.451973 4
9.477124 80
9.502276 15
9.527429 0
9.55258  72
9.577732 32
9.602883 42
9.628036 11
9.653188 31
9.678339 33
9.703491 4
9.728642 43
9.753795 11
9.778947 4
9.804098 3
9.82925  20
9.854402 0
9.879554 17
9.904706 4
9.929857 29
9.955009 0
9.980161 29
10.00531 5
