Commander Sample ID
5.0001   21
5.025252 21
5.050404 41
5.075556 7
5.100708 11
5.125859 0
5.151011 13
5.176163 19
5.201315 0
5.226467 0
5.251618 61
5.27677  21
5.301922 33
5.327074 0
5.352226 0
5.377378 24
5.402529 0
5.427681 0
5.452833 15
5.477985 16
5.503137 0
5.528288 0
5.55344  55
5.578592 0
5.603744 0
5.628896 49
5.654047 10
5.679199 8
5.704351 3
5.729503 0
5.754655 0
5.779807 1
5.804958 44
5.83011  23
5.855262 0
5.880414 35
5.905566 0
5.930717 46
5.955869 3
5.981021 35
6.006173 12
6.031325 25
6.056477 21
6.081628 0
6.106781 50
6.131932 20
6.157084 41
6.182236 16
6.207387 2
6.23254  51
6.257691 0
6.282843 2
6.307995 12
6.333147 60
6.358299 77
6.383451 49
6.408602 66
6.433754 63
6.458906 42
6.484058 58
6.50921  47
6.534361 57
6.559513 100
6.584665 45
6.609817 89
6.634969 114
6.66012  143
6.685272 108
6.710424 100
6.735576 143
6.760728 79
6.78588  184
6.811031 155
6.836183 125
6.861335 180
6.886487 232
6.911639 245
6.93679  238
6.961942 293
6.987094 384
7.012246 430
7.037398 472
7.06255  536
7.087701 737
7.112853 944
7.138005 1195
7.163157 1509
7.188309 2050
7.21346  2543
7.238612 3087
7.263764 3106
7.288916 2866
7.314068 2366
7.33922  1260
7.364371 861
7.389524 423
7.414675 378
7.439827 225
7.464979 227
7.49013  123
7.515283 94
7.540434 139
7.565586 137
7.590738 100
7.61589  63
7.641042 28
7.666193 65
7.691345 80
7.716497 42
7.741649 25
7.7668   34
7.791953 54
7.817104 28
7.842256 26
7.867408 64
7.89256  0
7.917712 49
7.942863 28
7.968015 24
7.993167 0
8.018319 0
8.04347  64
8.068623 17
8.093775 76
8.118926 27
8.144078 72
8.16923  132
8.194382 137
8.219534 226
8.244685 279
8.269837 328
8.294989 520
8.320141 645
8.345292 805
8.370444 1068
8.395597 1204
8.420748 1002
8.4459   856
8.471051 535
8.496203 264
8.521356 168
8.546507 114
8.571659 23
8.59681  4
8.621963 32
8.647115 42
8.672266 30
8.697418 2
8.722569 58
8.747722 5
8.772874 0
8.798025 32
8.823177 0
8.848329 0
8.873481 0
8.898633 0
8.923784 0
8.948936 0
8.974088 0
8.99924  14
9.024392 0
9.049543 19
9.074696 0
9.099847 3
9.124999 0
9.150151 7
9.175303 0
9.200455 0
9.225606 24
9.250758 0
9.27591  20
9.301062 32
9.326214 9
9.351365 0
9.376517 26
9.40167  0
9.426821 20
9.451973 0
9.477124 0
9.502276 15
9.527429 0
9.55258  13
9.577732 0
9.602883 31
9.628036 0
9.653188 22
9.678339 0
9.703491 0
9.728642 21
9.753795 0
9.778947 27
9.804098 0
9.82925  0
9.854402 1
9.879554 15
9.904706 0
9.929857 24
9.955009 18
9.980161 7
10.00531 5
