Commander Sample ID
5.0001   4
5.025252 4
5.050404 11
5.075556 0
5.100708 27
5.125859 43
5.151011 3
5.176163 19
5.201315 0
5.226467 4
5.251618 11
5.27677  24
5.301922 3
5.327074 0
5.352226 0
5.377378 0
5.402529 5
5.427681 0
5.452833 0
5.477985 20
5.503137 20
5.528288 16
5.55344  39
5.578592 0
5.603744 45
5.628896 13
5.654047 40
5.679199 33
5.704351 0
5.729503 44
5.754655 14
5.779807 0
5.804958 26
5.83011  31
5.855262 38
5.880414 23
5.905566 3
5.930717 15
5.955869 54
5.981021 0
6.006173 15
6.031325 0
6.056477 23
6.081628 25
6.106781 48
6.131932 3
6.157084 11
6.182236 0
6.207387 75
6.23254  3
6.257691 0
6.282843 56
6.307995 0
6.333147 0
6.358299 36
6.383451 66
6.408602 45
6.433754 38
6.458906 59
6.484058 24
6.50921  84
6.534361 14
6.559513 77
6.584665 30
6.609817 86
6.634969 109
6.66012  63
6.685272 88
6.710424 19
6.735576 198
6.760728 63
6.78588  132
6.811031 140
6.836183 165
6.861335 138
6.886487 179
6.911639 219
6.93679  223
6.961942 282
6.987094 255
7.012246 414
7.037398 434
7.06255  510
7.087701 699
7.112853 821
7.138005 1003
7.163157 1181
7.188309 1799
7.21346  2347
7.238612 2860
7.263764 3378
7.288916 4061
7.314068 3800
7.33922  2747
7.364371 1270
7.389524 497
7.414675 256
7.439827 174
7.464979 84
7.49013  102
7.515283 72
7.540434 62
7.565586 27
7.590738 68
7.61589  56
7.641042 10
7.666193 34
7.691345 26
7.716497 0
7.741649 36
7.7668   18
7.791953 0
7.817104 23
7.842256 15
7.867408 9
7.89256  18
7.917712 0
7.942863 5
7.968015 39
7.993167 47
8.018319 17
8.04347  22
8.068623 20
8.093775 63
8.118926 56
8.144078 106
8.16923  79
8.194382 109
8.219534 221
8.244685 197
8.269837 358
8.294989 456
8.320141 569
8.345292 887
8.370444 1139
8.395597 1529
8.420748 1530
8.4459   1614
8.471051 1335
8.496203 644
8.521356 237
8.546507 94
8.571659 88
8.59681  47
8.621963 1
8.647115 154
8.672266 118
8.697418 27
8.722569 43
8.747722 30
8.772874 76
8.798025 35
8.823177 42
8.848329 3
8.873481 14
8.898633 49
8.923784 43
8.948936 47
8.974088 38
8.99924  0
9.024392 0
9.049543 6
9.074696 49
9.099847 26
9.124999 4
9.150151 37
9.175303 33
9.200455 5
9.225606 42
9.250758 6
9.27591  40
9.301062 41
9.326214 27
9.351365 107
9.376517 2
9.40167  37
9.426821 19
9.451973 59
9.477124 8
9.502276 62
9.527429 0
9.55258  14
9.577732 31
9.602883 27
9.628036 14
9.653188 8
9.678339 25
9.703491 61
9.728642 14
9.753795 33
9.778947 39
9.804098 0
9.82925  3
9.854402 33
9.879554 31
9.904706 0
9.929857 27
9.955009 21
9.980161 11
10.00531 16
