Commander Sample ID
5.0001   0
5.025252 0
5.050404 46
5.075556 10
5.100708 0
5.125859 3
5.151011 0
5.176163 0
5.201315 40
5.226467 0
5.251618 9
5.27677  13
5.301922 33
5.327074 0
5.352226 0
5.377378 29
5.402529 0
5.427681 0
5.452833 0
5.477985 0
5.503137 34
5.528288 0
5.55344  2
5.578592 0
5.603744 2
5.628896 0
5.654047 0
5.679199 0
5.704351 21
5.729503 0
5.754655 6
5.779807 0
5.804958 0
5.83011  0
5.855262 0
5.880414 0
5.905566 0
5.930717 3
5.955869 22
5.981021 0
6.006173 0
6.031325 43
6.056477 1
6.081628 26
6.106781 0
6.131932 0
6.157084 0
6.182236 66
6.207387 28
6.23254  0
6.257691 42
6.282843 26
6.307995 0
6.333147 27
6.358299 0
6.383451 10
6.408602 63
6.433754 21
6.458906 46
6.484058 6
6.50921  67
6.534361 52
6.559513 27
6.584665 56
6.609817 64
6.634969 42
6.66012  45
6.685272 20
6.710424 63
6.735576 82
6.760728 31
6.78588  148
6.811031 85
6.836183 94
6.861335 74
6.886487 154
6.911639 192
6.93679  189
6.961942 264
6.987094 280
7.012246 272
7.037398 353
7.06255  518
7.087701 572
7.112853 874
7.138005 1073
7.163157 1362
7.188309 1863
7.21346  2422
7.238612 2758
7.263764 2780
7.288916 2373
7.314068 1916
7.33922  1262
7.364371 529
7.389524 224
7.414675 185
7.439827 133
7.464979 57
7.49013  46
7.515283 38
7.540434 102
7.565586 38
7.590738 6
7.61589  41
7.641042 12
7.666193 10
7.691345 0
7.716497 10
7.741649 0
7.7668   30
7.791953 45
7.817104 35
7.842256 1
7.867408 27
7.89256  0
7.917712 6
7.942863 18
7.968015 35
7.993167 78
8.018319 39
8.04347  6
8.068623 46
8.093775 62
8.118926 67
8.144078 99
8.16923  73
8.194382 209
8.219534 162
8.244685 305
8.269837 339
8.294989 519
8.320141 730
8.345292 862
8.370444 1154
8.395597 1132
8.420748 977
8.4459   890
8.471051 541
8.496203 257
8.521356 95
8.546507 96
8.571659 98
8.59681  36
8.621963 99
8.647115 41
8.672266 10
8.697418 40
8.722569 104
8.747722 83
8.772874 32
8.798025 70
8.823177 38
8.848329 71
8.873481 30
8.898633 60
8.923784 52
8.948936 7
8.974088 36
8.99924  51
9.024392 43
9.049543 6
9.074696 64
9.099847 31
9.124999 54
9.150151 16
9.175303 44
9.200455 27
9.225606 51
9.250758 35
9.27591  29
9.301062 7
9.326214 31
9.351365 32
9.376517 45
9.40167  24
9.426821 14
9.451973 67
9.477124 49
9.502276 45
9.527429 57
9.55258  20
9.577732 34
9.602883 50
9.628036 16
9.653188 0
9.678339 34
9.703491 37
9.728642 15
9.753795 0
9.778947 2
9.804098 11
9.82925  0
9.854402 26
9.879554 0
9.904706 61
9.929857 5
9.955009 0
9.980161 8
10.00531 0
