Commander Sample ID
5.0001   66
5.025252 66
5.050404 39
5.075556 126
5.100708 135
5.125859 26
5.151011 228
5.176163 74
5.201315 73
5.226467 0
5.251618 141
5.27677  52
5.301922 151
5.327074 232
5.352226 111
5.377378 195
5.402529 194
5.427681 149
5.452833 436
5.477985 269
5.503137 231
5.528288 374
5.55344  275
5.578592 385
5.603744 519
5.628896 484
5.654047 638
5.679199 598
5.704351 1066
5.729503 914
5.754655 1091
5.779807 1225
5.804958 1420
5.83011  1790
5.855262 2093
5.880414 2594
5.905566 2900
5.930717 3321
5.955869 3384
5.981021 2948
6.006173 2663
6.031325 1904
6.056477 1086
6.081628 796
6.106781 487
6.131932 448
6.157084 258
6.182236 141
6.207387 101
6.23254  136
6.257691 163
6.282843 124
6.307995 0
6.333147 136
6.358299 63
6.383451 14
6.408602 83
6.433754 49
6.458906 34
6.484058 0
6.50921  52
6.534361 7
6.559513 109
6.584665 50
6.609817 63
6.634969 64
6.66012  0
6.685272 10
6.710424 0
6.735576 0
6.760728 15
6.78588  21
6.811031 0
6.836183 57
6.861335 0
6.886487 61
6.911639 0
6.93679  0
6.961942 0
6.987094 0
7.012246 0
7.037398 44
7.06255  0
7.087701 36
7.112853 38
7.138005 36
7.163157 62
7.188309 0
7.21346  0
7.238612 0
7.263764 16
7.288916 0
7.314068 108
7.33922  0
7.364371 0
7.389524 0
7.414675 0
7.439827 44
7.464979 42
7.49013  8
7.515283 0
7.540434 98
7.565586 0
7.590738 0
7.61589  0
7.641042 0
7.666193 7
7.691345 5
7.716497 0
7.741649 209
7.7668   199
7.791953 61
7.817104 26
7.842256 108
7.867408 13
7.89256  108
7.917712 33
7.942863 171
7.968015 91
7.993167 95
8.018319 97
8.04347  118
8.068623 141
8.093775 84
8.118926 257
8.144078 229
8.16923  259
8.194382 300
8.219534 261
8.244685 365
8.269837 301
8.294989 479
8.320141 412
8.345292 439
8.370444 652
8.395597 552
8.420748 615
8.4459   710
8.471051 555
8.496203 718
8.521356 522
8.546507 560
8.571659 395
8.59681  395
8.621963 293
8.647115 279
8.672266 251
8.697418 256
8.722569 92
8.747722 115
8.772874 298
8.798025 132
8.823177 64
8.848329 137
8.873481 235
8.898633 29
8.923784 227
8.948936 157
8.974088 83
8.99924  137
9.024392 140
9.049543 154
9.074696 135
9.099847 93
9.124999 35
9.150151 45
9.175303 21
9.200455 103
9.225606 75
9.250758 0
9.27591  8
9.301062 0
9.326214 18
9.351365 0
9.376517 41
9.40167  0
9.426821 33
9.451973 3
9.477124 66
9.502276 40
9.527429 0
9.55258  0
9.577732 60
9.602883 0
9.628036 50
9.653188 44
9.678339 0
9.703491 4
9.728642 0
9.753795 0
9.778947 0
9.804098 88
9.82925  1
9.854402 0
9.879554 28
9.904706 25
9.929857 8
9.955009 13
9.980161 4
10.00531 0
