Commander Sample ID
5.0001   77
5.025252 77
5.050404 23
5.075556 16
5.100708 0
5.125859 23
5.151011 36
5.176163 7
5.201315 0
5.226467 40
5.251618 0
5.27677  45
5.301922 24
5.327074 17
5.352226 0
5.377378 61
5.402529 45
5.427681 4
5.452833 42
5.477985 0
5.503137 0
5.528288 5
5.55344  0
5.578592 0
5.603744 0
5.628896 0
5.654047 0
5.679199 0
5.704351 0
5.729503 20
5.754655 0
5.779807 0
5.804958 0
5.83011  0
5.855262 0
5.880414 0
5.905566 23
5.930717 0
5.955869 22
5.981021 0
6.006173 0
6.031325 0
6.056477 0
6.081628 12
6.106781 0
6.131932 15
6.157084 10
6.182236 0
6.207387 21
6.23254  0
6.257691 4
6.282843 21
6.307995 0
6.333147 0
6.358299 43
6.383451 13
6.408602 6
6.433754 64
6.458906 39
6.484058 50
6.50921  0
6.534361 27
6.559513 6
6.584665 104
6.609817 85
6.634969 48
6.66012  16
6.685272 36
6.710424 97
6.735576 83
6.760728 108
6.78588  94
6.811031 154
6.836183 158
6.861335 168
6.886487 242
6.911639 253
6.93679  294
6.961942 331
6.987094 358
7.012246 453
7.037398 431
7.06255  635
7.087701 718
7.112853 853
7.138005 1023
7.163157 1345
7.188309 1751
7.21346  2114
7.238612 2462
7.263764 2557
7.288916 2832
7.314068 2387
7.33922  1399
7.364371 668
7.389524 342
7.414675 220
7.439827 74
7.464979 144
7.49013  43
7.515283 72
7.540434 41
7.565586 69
7.590738 26
7.61589  79
7.641042 6
7.666193 0
7.691345 0
7.716497 0
7.741649 0
7.7668   0
7.791953 38
7.817104 4
7.842256 0
7.867408 0
7.89256  0
7.917712 8
7.942863 0
7.968015 22
7.993167 35
8.018319 15
8.04347  97
8.068623 29
8.093775 58
8.118926 97
8.144078 96
8.16923  199
8.194382 101
8.219534 204
8.244685 333
8.269837 335
8.294989 529
8.320141 612
8.345292 837
8.370444 968
8.395597 1149
8.420748 1125
8.4459   1170
8.471051 588
8.496203 322
8.521356 103
8.546507 90
8.571659 55
8.59681  24
8.621963 0
8.647115 0
8.672266 0
8.697418 6
8.722569 5
8.747722 0
8.772874 0
8.798025 0
8.823177 0
8.848329 0
8.873481 8
8.898633 0
8.923784 0
8.948936 0
8.974088 24
8.99924  0
9.024392 3
9.049543 0
9.074696 0
9.099847 0
9.124999 0
9.150151 0
9.175303 0
9.200455 0
9.225606 18
9.250758 4
9.27591  0
9.301062 22
9.326214 23
9.351365 21
9.376517 20
9.40167  10
9.426821 0
9.451973 29
9.477124 30
9.502276 34
9.527429 10
9.55258  28
9.577732 41
9.602883 37
9.628036 36
9.653188 24
9.678339 71
9.703491 50
9.728642 12
9.753795 76
9.778947 36
9.804098 68
9.82925  32
9.854402 30
9.879554 75
9.904706 41
9.929857 120
9.955009 64
9.980161 63
10.00531 59
