Commander Sample ID
5.0001   0
5.025252 0
5.050404 45
5.075556 0
5.100708 0
5.125859 0
5.151011 0
5.176163 0
5.201315 0
5.226467 0
5.251618 0
5.27677  0
5.301922 19
5.327074 24
5.352226 0
5.377378 3
5.402529 0
5.427681 0
5.452833 0
5.477985 30
5.503137 0
5.528288 39
5.55344  18
5.578592 50
5.603744 73
5.628896 79
5.654047 147
5.679199 73
5.704351 138
5.729503 246
5.754655 235
5.779807 321
5.804958 351
5.83011  467
5.855262 590
5.880414 560
5.905566 824
5.930717 979
5.955869 1029
5.981021 1144
6.006173 897
6.031325 867
6.056477 673
6.081628 385
6.106781 349
6.131932 313
6.157084 373
6.182236 236
6.207387 277
6.23254  233
6.257691 314
6.282843 381
6.307995 407
6.333147 450
6.358299 484
6.383451 532
6.408602 467
6.433754 668
6.458906 562
6.484058 679
6.50921  722
6.534361 863
6.559513 884
6.584665 1023
6.609817 1031
6.634969 1076
6.66012  1190
6.685272 1251
6.710424 1451
6.735576 1416
6.760728 1642
6.78588  1608
6.811031 1678
6.836183 1800
6.861335 1678
6.886487 1815
6.911639 1693
6.93679  1821
6.961942 1831
6.987094 1754
7.012246 1776
7.037398 1847
7.06255  1672
7.087701 1681
7.112853 1717
7.138005 1677
7.163157 1659
7.188309 1557
7.21346  1512
7.238612 1564
7.263764 1339
7.288916 1243
7.314068 1167
7.33922  1072
7.364371 998
7.389524 979
7.414675 814
7.439827 788
7.464979 639
7.49013  611
7.515283 544
7.540434 510
7.565586 408
7.590738 422
7.61589  322
7.641042 326
7.666193 303
7.691345 244
7.716497 196
7.741649 187
7.7668   157
7.791953 82
7.817104 100
7.842256 154
7.867408 142
7.89256  123
7.917712 46
7.942863 93
7.968015 25
7.993167 123
8.018319 57
8.04347  57
8.068623 81
8.093775 58
8.118926 42
8.144078 34
8.16923  9
8.194382 89
8.219534 121
8.244685 46
8.269837 63
8.294989 83
8.320141 99
8.345292 130
8.370444 130
8.395597 179
8.420748 183
8.4459   145
8.471051 227
8.496203 111
8.521356 161
8.546507 120
8.571659 92
8.59681  112
8.621963 75
8.647115 61
8.672266 60
8.697418 57
8.722569 68
8.747722 84
8.772874 54
8.798025 85
8.823177 9
8.848329 16
8.873481 53
8.898633 24
8.923784 32
8.948936 36
8.974088 40
8.99924  1
9.024392 74
9.049543 18
9.074696 92
9.099847 63
9.124999 23
9.150151 31
9.175303 67
9.200455 10
9.225606 84
9.250758 44
9.27591  15
9.301062 36
9.326214 65
9.351365 41
9.376517 36
9.40167  38
9.426821 35
9.451973 57
9.477124 14
9.502276 84
9.527429 29
9.55258  70
9.577732 21
9.602883 17
9.628036 72
9.653188 24
9.678339 38
9.703491 14
9.728642 29
9.753795 16
9.778947 34
9.804098 0
9.82925  0
9.854402 1
9.879554 38
9.904706 0
9.929857 35
9.955009 10
9.980161 20
10.00531 0
