Commander Sample ID
5.0001   63
5.025252 63
5.050404 59
5.075556 28
5.100708 12
5.125859 12
5.151011 0
5.176163 0
5.201315 10
5.226467 0
5.251618 15
5.27677  10
5.301922 1
5.327074 20
5.352226 0
5.377378 32
5.402529 0
5.427681 0
5.452833 0
5.477985 0
5.503137 14
5.528288 7
5.55344  60
5.578592 0
5.603744 0
5.628896 29
5.654047 0
5.679199 35
5.704351 29
5.729503 13
5.754655 16
5.779807 20
5.804958 0
5.83011  21
5.855262 23
5.880414 46
5.905566 0
5.930717 46
5.955869 23
5.981021 20
6.006173 32
6.031325 11
6.056477 24
6.081628 0
6.106781 28
6.131932 15
6.157084 21
6.182236 25
6.207387 44
6.23254  31
6.257691 4
6.282843 0
6.307995 25
6.333147 18
6.358299 30
6.383451 100
6.408602 13
6.433754 58
6.458906 22
6.484058 38
6.50921  13
6.534361 49
6.559513 31
6.584665 60
6.609817 16
6.634969 78
6.66012  69
6.685272 31
6.710424 82
6.735576 69
6.760728 62
6.78588  31
6.811031 66
6.836183 74
6.861335 83
6.886487 111
6.911639 103
6.93679  150
6.961942 82
6.987094 168
7.012246 189
7.037398 196
7.06255  259
7.087701 277
7.112853 415
7.138005 454
7.163157 477
7.188309 790
7.21346  1050
7.238612 1378
7.263764 1541
7.288916 1674
7.314068 1356
7.33922  943
7.364371 400
7.389524 226
7.414675 93
7.439827 125
7.464979 125
7.49013  82
7.515283 58
7.540434 49
7.565586 98
7.590738 13
7.61589  81
7.641042 0
7.666193 51
7.691345 61
7.716497 13
7.741649 63
7.7668   58
7.791953 34
7.817104 35
7.842256 20
7.867408 0
7.89256  24
7.917712 12
7.942863 54
7.968015 41
7.993167 27
8.018319 71
8.04347  17
8.068623 35
8.093775 91
8.118926 44
8.144078 50
8.16923  78
8.194382 104
8.219534 104
8.244685 145
8.269837 188
8.294989 212
8.320141 339
8.345292 467
8.370444 684
8.395597 683
8.420748 980
8.4459   834
8.471051 490
8.496203 236
8.521356 116
8.546507 72
8.571659 71
8.59681  44
8.621963 23
8.647115 38
8.672266 41
8.697418 0
8.722569 66
8.747722 31
8.772874 27
8.798025 13
8.823177 2
8.848329 0
8.873481 18
8.898633 9
8.923784 12
8.948936 43
8.974088 26
8.99924  15
9.024392 0
9.049543 10
9.074696 5
9.099847 0
9.124999 18
9.150151 12
9.175303 0
9.200455 28
9.225606 52
9.250758 50
9.27591  21
9.301062 36
9.326214 32
9.351365 0
9.376517 9
9.40167  54
9.426821 0
9.451973 0
9.477124 0
9.502276 6
9.527429 0
9.55258  35
9.577732 0
9.602883 19
9.628036 15
9.653188 0
9.678339 0
9.703491 33
9.728642 40
9.753795 55
9.778947 27
9.804098 7
9.82925  28
9.854402 14
9.879554 0
9.904706 34
9.929857 31
9.955009 7
9.980161 0
10.00531 3
