Commander Sample ID
5.0001   37
5.025252 37
5.050404 26
5.075556 11
5.100708 44
5.125859 25
5.151011 0
5.176163 0
5.201315 0
5.226467 0
5.251618 0
5.27677  0
5.301922 0
5.327074 0
5.352226 0
5.377378 0
5.402529 0
5.427681 0
5.452833 0
5.477985 3
5.503137 0
5.528288 0
5.55344  0
5.578592 0
5.603744 0
5.628896 0
5.654047 0
5.679199 0
5.704351 0
5.729503 0
5.754655 0
5.779807 0
5.804958 5
5.83011  0
5.855262 0
5.880414 0
5.905566 0
5.930717 0
5.955869 0
5.981021 0
6.006173 11
6.031325 0
6.056477 0
6.081628 0
6.106781 0
6.131932 0
6.157084 0
6.182236 11
6.207387 0
6.23254  8
6.257691 0
6.282843 0
6.307995 6
6.333147 42
6.358299 0
6.383451 16
6.408602 29
6.433754 0
6.458906 11
6.484058 0
6.50921  28
6.534361 63
6.559513 66
6.584665 54
6.609817 74
6.634969 63
6.66012  63
6.685272 94
6.710424 121
6.735576 120
6.760728 145
6.78588  180
6.811031 203
6.836183 171
6.861335 269
6.886487 340
6.911639 330
6.93679  375
6.961942 498
6.987094 586
7.012246 711
7.037398 703
7.06255  1001
7.087701 1191
7.112853 1544
7.138005 2013
7.163157 2880
7.188309 4515
7.21346  7318
7.238612 8610
7.263764 8618
7.288916 7804
7.314068 5564
7.33922  3031
7.364371 996
7.389524 444
7.414675 338
7.439827 267
7.464979 154
7.49013  222
7.515283 97
7.540434 113
7.565586 75
7.590738 116
7.61589  44
7.641042 54
7.666193 19
7.691345 117
7.716497 58
7.741649 11
7.7668   15
7.791953 57
7.817104 0
7.842256 28
7.867408 3
7.89256  30
7.917712 9
7.942863 33
7.968015 66
7.993167 31
8.018319 96
8.04347  44
8.068623 92
8.093775 154
8.118926 199
8.144078 176
8.16923  260
8.194382 306
8.219534 369
8.244685 506
8.269837 694
8.294989 881
8.320141 1625
8.345292 2216
8.370444 2971
8.395597 3365
8.420748 3229
8.4459   2288
8.471051 1360
8.496203 503
8.521356 187
8.546507 120
8.571659 93
8.59681  26
8.621963 18
8.647115 26
8.672266 0
8.697418 0
8.722569 12
8.747722 35
8.772874 0
8.798025 0
8.823177 0
8.848329 0
8.873481 0
8.898633 0
8.923784 0
8.948936 0
8.974088 1
8.99924  0
9.024392 0
9.049543 0
9.074696 0
9.099847 0
9.124999 0
9.150151 0
9.175303 0
9.200455 0
9.225606 0
9.250758 0
9.27591  0
9.301062 0
9.326214 0
9.351365 0
9.376517 0
9.40167  0
9.426821 0
9.451973 0
9.477124 0
9.502276 0
9.527429 0
9.55258  0
9.577732 0
9.602883 20
9.628036 0
9.653188 66
9.678339 51
9.703491 4
9.728642 0
9.753795 26
9.778947 2
9.804098 51
9.82925  4
9.854402 2
9.879554 40
9.904706 0
9.929857 0
9.955009 33
9.980161 8
10.00531 14
