Commander Sample ID
5.0001   0
5.025252 0
5.050404 118
5.075556 91
5.100708 76
5.125859 0
5.151011 0
5.176163 138
5.201315 22
5.226467 77
5.251618 89
5.27677  68
5.301922 132
5.327074 108
5.352226 112
5.377378 305
5.402529 219
5.427681 298
5.452833 266
5.477985 425
5.503137 344
5.528288 508
5.55344  535
5.578592 646
5.603744 612
5.628896 726
5.654047 891
5.679199 904
5.704351 1067
5.729503 1161
5.754655 1336
5.779807 1519
5.804958 1822
5.83011  2290
5.855262 2132
5.880414 2946
5.905566 3039
5.930717 4106
5.955869 4573
5.981021 5559
6.006173 5605
6.031325 4780
6.056477 3424
6.081628 2544
6.106781 1963
6.131932 1412
6.157084 1365
6.182236 932
6.207387 792
6.23254  620
6.257691 386
6.282843 261
6.307995 255
6.333147 206
6.358299 53
6.383451 87
6.408602 23
6.433754 0
6.458906 0
6.484058 0
6.50921  166
6.534361 83
6.559513 55
6.584665 0
6.609817 0
6.634969 0
6.66012  19
6.685272 0
6.710424 14
6.735576 0
6.760728 0
6.78588  58
6.811031 0
6.836183 0
6.861335 0
6.886487 0
6.911639 12
6.93679  0
6.961942 45
6.987094 0
7.012246 27
7.037398 0
7.06255  2
7.087701 0
7.112853 0
7.138005 8
7.163157 109
7.188309 0
7.21346  262
7.238612 77
7.263764 57
7.288916 107
7.314068 34
7.33922  0
7.364371 0
7.389524 221
7.414675 0
7.439827 110
7.464979 65
7.49013  55
7.515283 87
7.540434 90
7.565586 104
7.590738 143
7.61589  37
7.641042 17
7.666193 70
7.691345 0
7.716497 82
7.741649 66
7.7668   102
7.791953 115
7.817104 84
7.842256 115
7.867408 93
7.89256  140
7.917712 200
7.942863 208
7.968015 205
7.993167 293
8.018319 238
8.04347  106
8.068623 424
8.093775 252
8.118926 469
8.144078 323
8.16923  453
8.194382 356
8.219534 557
8.244685 498
8.269837 588
8.294989 684
8.320141 777
8.345292 890
8.370444 910
8.395597 1089
8.420748 1118
8.4459   1337
8.471051 1467
8.496203 1606
8.521356 1381
8.546507 1381
8.571659 1055
8.59681  950
8.621963 648
8.647115 576
8.672266 591
8.697418 427
8.722569 379
8.747722 390
8.772874 237
8.798025 248
8.823177 280
8.848329 54
8.873481 247
8.898633 36
8.923784 249
8.948936 89
8.974088 90
8.99924  44
9.024392 67
9.049543 0
9.074696 96
9.099847 22
9.124999 0
9.150151 0
9.175303 90
9.200455 35
9.225606 0
9.250758 52
9.27591  0
9.301062 35
9.326214 0
9.351365 0
9.376517 46
9.40167  0
9.426821 0
9.451973 0
9.477124 0
9.502276 0
9.527429 25
9.55258  0
9.577732 0
9.602883 0
9.628036 13
9.653188 0
9.678339 0
9.703491 0
9.728642 0
9.753795 0
9.778947 0
9.804098 0
9.82925  13
9.854402 32
9.879554 23
9.904706 72
9.929857 2
9.955009 0
9.980161 12
10.00531 0
