Commander Sample ID
5.0001   131
5.025252 131
5.050404 83
5.075556 10
5.100708 0
5.125859 30
5.151011 194
5.176163 40
5.201315 67
5.226467 81
5.251618 180
5.27677  134
5.301922 0
5.327074 25
5.352226 0
5.377378 43
5.402529 0
5.427681 65
5.452833 38
5.477985 95
5.503137 0
5.528288 98
5.55344  11
5.578592 0
5.603744 0
5.628896 0
5.654047 0
5.679199 0
5.704351 0
5.729503 0
5.754655 0
5.779807 74
5.804958 0
5.83011  0
5.855262 0
5.880414 0
5.905566 0
5.930717 0
5.955869 0
5.981021 0
6.006173 0
6.031325 0
6.056477 35
6.081628 0
6.106781 0
6.131932 0
6.157084 69
6.182236 0
6.207387 54
6.23254  0
6.257691 0
6.282843 0
6.307995 0
6.333147 29
6.358299 2
6.383451 0
6.408602 0
6.433754 0
6.458906 32
6.484058 172
6.50921  82
6.534361 174
6.559513 160
6.584665 265
6.609817 189
6.634969 227
6.66012  332
6.685272 362
6.710424 346
6.735576 428
6.760728 352
6.78588  597
6.811031 614
6.836183 545
6.861335 656
6.886487 764
6.911639 719
6.93679  701
6.961942 902
6.987094 903
7.012246 760
7.037398 894
7.06255  921
7.087701 867
7.112853 1083
7.138005 969
7.163157 998
7.188309 1010
7.21346  1259
7.238612 1061
7.263764 1222
7.288916 1209
7.314068 1151
7.33922  1023
7.364371 915
7.389524 785
7.414675 668
7.439827 518
7.464979 525
7.49013  579
7.515283 225
7.540434 287
7.565586 296
7.590738 230
7.61589  174
7.641042 184
7.666193 213
7.691345 58
7.716497 155
7.741649 39
7.7668   99
7.791953 104
7.817104 84
7.842256 112
7.867408 104
7.89256  0
7.917712 152
7.942863 0
7.968015 0
7.993167 0
8.018319 116
8.04347  20
8.068623 71
8.093775 4
8.118926 91
8.144078 21
8.16923  45
8.194382 18
8.219534 51
8.244685 49
8.269837 133
8.294989 65
8.320141 114
8.345292 130
8.370444 138
8.395597 174
8.420748 175
8.4459   175
8.471051 54
8.496203 204
8.521356 14
8.546507 78
8.571659 36
8.59681  2
8.621963 102
8.647115 68
8.672266 40
8.697418 93
8.722569 87
8.747722 55
8.772874 28
8.798025 90
8.823177 59
8.848329 86
8.873481 86
8.898633 24
8.923784 152
8.948936 63
8.974088 65
8.99924  41
9.024392 132
9.049543 7
9.074696 126
9.099847 127
9.124999 26
9.150151 160
9.175303 72
9.200455 103
9.225606 35
9.250758 28
9.27591  96
9.301062 73
9.326214 150
9.351365 6
9.376517 117
9.40167  10
9.426821 0
9.451973 42
9.477124 3
9.502276 105
9.527429 13
9.55258  94
9.577732 44
9.602883 94
9.628036 13
9.653188 45
9.678339 85
9.703491 56
9.728642 120
9.753795 23
9.778947 88
9.804098 12
9.82925  22
9.854402 135
9.879554 101
9.904706 68
9.929857 64
9.955009 78
9.980161 40
10.00531 0
