Commander Sample ID
5.0001   56
5.025252 56
5.050404 10
5.075556 38
5.100708 76
5.125859 0
5.151011 15
5.176163 180
5.201315 0
5.226467 48
5.251618 0
5.27677  0
5.301922 60
5.327074 0
5.352226 163
5.377378 0
5.402529 29
5.427681 17
5.452833 0
5.477985 22
5.503137 79
5.528288 44
5.55344  0
5.578592 0
5.603744 62
5.628896 0
5.654047 0
5.679199 13
5.704351 0
5.729503 0
5.754655 0
5.779807 0
5.804958 0
5.83011  54
5.855262 0
5.880414 0
5.905566 53
5.930717 12
5.955869 39
5.981021 0
6.006173 0
6.031325 0
6.056477 0
6.081628 0
6.106781 0
6.131932 40
6.157084 0
6.182236 0
6.207387 12
6.23254  0
6.257691 17
6.282843 0
6.307995 16
6.333147 35
6.358299 30
6.383451 5
6.408602 0
6.433754 86
6.458906 0
6.484058 0
6.50921  158
6.534361 0
6.559513 48
6.584665 38
6.609817 64
6.634969 109
6.66012  90
6.685272 75
6.710424 212
6.735576 186
6.760728 89
6.78588  67
6.811031 200
6.836183 181
6.861335 232
6.886487 189
6.911639 246
6.93679  267
6.961942 201
6.987094 245
7.012246 125
7.037398 265
7.06255  253
7.087701 181
7.112853 416
7.138005 231
7.163157 369
7.188309 297
7.21346  415
7.238612 295
7.263764 380
7.288916 220
7.314068 179
7.33922  148
7.364371 160
7.389524 101
7.414675 108
7.439827 77
7.464979 40
7.49013  89
7.515283 0
7.540434 86
7.565586 0
7.590738 0
7.61589  0
7.641042 0
7.666193 21
7.691345 0
7.716497 0
7.741649 0
7.7668   0
7.791953 0
7.817104 0
7.842256 0
7.867408 0
7.89256  0
7.917712 0
7.942863 0
7.968015 0
7.993167 0
8.018319 0
8.04347  0
8.068623 0
8.093775 14
8.118926 46
8.144078 11
8.16923  34
8.194382 97
8.219534 35
8.244685 21
8.269837 39
8.294989 84
8.320141 71
8.345292 88
8.370444 118
8.395597 80
8.420748 41
8.4459   70
8.471051 24
8.496203 78
8.521356 36
8.546507 84
8.571659 144
8.59681  70
8.621963 97
8.647115 0
8.672266 68
8.697418 118
8.722569 59
8.747722 88
8.772874 149
8.798025 1
8.823177 74
8.848329 37
8.873481 0
8.898633 146
8.923784 64
8.948936 28
8.974088 132
8.99924  63
9.024392 8
9.049543 42
9.074696 5
9.099847 29
9.124999 12
9.150151 32
9.175303 0
9.200455 23
9.225606 0
9.250758 0
9.27591  0
9.301062 0
9.326214 0
9.351365 40
9.376517 0
9.40167  0
9.426821 0
9.451973 14
9.477124 0
9.502276 0
9.527429 17
9.55258  30
9.577732 6
9.602883 0
9.628036 0
9.653188 0
9.678339 66
9.703491 0
9.728642 0
9.753795 0
9.778947 0
9.804098 0
9.82925  4
9.854402 0
9.879554 0
9.904706 0
9.929857 43
9.955009 34
9.980161 30
10.00531 0
