Commander Sample ID
5.0001   0
5.025252 0
5.050404 167
5.075556 26
5.100708 84
5.125859 199
5.151011 148
5.176163 142
5.201315 217
5.226467 28
5.251618 64
5.27677  109
5.301922 54
5.327074 192
5.352226 88
5.377378 47
5.402529 150
5.427681 0
5.452833 127
5.477985 135
5.503137 106
5.528288 81
5.55344  108
5.578592 133
5.603744 70
5.628896 56
5.654047 39
5.679199 112
5.704351 0
5.729503 49
5.754655 75
5.779807 0
5.804958 243
5.83011  207
5.855262 95
5.880414 29
5.905566 10
5.930717 135
5.955869 63
5.981021 25
6.006173 0
6.031325 157
6.056477 49
6.081628 31
6.106781 76
6.131932 24
6.157084 13
6.182236 0
6.207387 0
6.23254  0
6.257691 6
6.282843 11
6.307995 0
6.333147 8
6.358299 0
6.383451 162
6.408602 5
6.433754 132
6.458906 140
6.484058 17
6.50921  206
6.534361 56
6.559513 110
6.584665 212
6.609817 161
6.634969 242
6.66012  210
6.685272 143
6.710424 189
6.735576 289
6.760728 232
6.78588  372
6.811031 252
6.836183 485
6.861335 399
6.886487 568
6.911639 582
6.93679  640
6.961942 734
6.987094 836
7.012246 956
7.037398 1116
7.06255  1206
7.087701 1533
7.112853 1584
7.138005 1996
7.163157 2081
7.188309 2650
7.21346  3054
7.238612 3752
7.263764 4497
7.288916 5416
7.314068 5088
7.33922  3459
7.364371 1532
7.389524 803
7.414675 446
7.439827 282
7.464979 254
7.49013  218
7.515283 44
7.540434 228
7.565586 70
7.590738 0
7.61589  60
7.641042 80
7.666193 91
7.691345 63
7.716497 109
7.741649 98
7.7668   34
7.791953 36
7.817104 112
7.842256 0
7.867408 0
7.89256  32
7.917712 123
7.942863 108
7.968015 36
7.993167 203
8.018319 172
8.04347  138
8.068623 160
8.093775 171
8.118926 288
8.144078 399
8.16923  248
8.194382 522
8.219534 379
8.244685 575
8.269837 790
8.294989 812
8.320141 1050
8.345292 1211
8.370444 1589
8.395597 1924
8.420748 2265
8.4459   2371
8.471051 1769
8.496203 917
8.521356 409
8.546507 180
8.571659 221
8.59681  243
8.621963 198
8.647115 137
8.672266 155
8.697418 153
8.722569 126
8.747722 113
8.772874 87
8.798025 122
8.823177 108
8.848329 136
8.873481 151
8.898633 54
8.923784 63
8.948936 0
8.974088 52
8.99924  147
9.024392 55
9.049543 73
9.074696 83
9.099847 21
9.124999 102
9.150151 12
9.175303 59
9.200455 73
9.225606 49
9.250758 13
9.27591  52
9.301062 50
9.326214 3
9.351365 129
9.376517 45
9.40167  15
9.426821 0
9.451973 29
9.477124 27
9.502276 0
9.527429 0
9.55258  61
9.577732 49
9.602883 43
9.628036 0
9.653188 0
9.678339 72
9.703491 0
9.728642 32
9.753795 1
9.778947 37
9.804098 35
9.82925  35
9.854402 38
9.879554 7
9.904706 0
9.929857 0
9.955009 62
9.980161 30
10.00531 58
