Commander Sample ID
5.0001   0
5.025252 0
5.050404 107
5.075556 85
5.100708 34
5.125859 133
5.151011 40
5.176163 0
5.201315 0
5.226467 94
5.251618 79
5.27677  31
5.301922 156
5.327074 152
5.352226 0
5.377378 0
5.402529 120
5.427681 92
5.452833 27
5.477985 0
5.503137 170
5.528288 42
5.55344  0
5.578592 3
5.603744 144
5.628896 174
5.654047 0
5.679199 60
5.704351 68
5.729503 0
5.754655 0
5.779807 0
5.804958 0
5.83011  0
5.855262 58
5.880414 0
5.905566 0
5.930717 0
5.955869 43
5.981021 4
6.006173 0
6.031325 0
6.056477 0
6.081628 0
6.106781 8
6.131932 0
6.157084 62
6.182236 1
6.207387 16
6.23254  0
6.257691 0
6.282843 6
6.307995 98
6.333147 0
6.358299 33
6.383451 0
6.408602 56
6.433754 0
6.458906 0
6.484058 0
6.50921  27
6.534361 0
6.559513 93
6.584665 65
6.609817 11
6.634969 133
6.66012  0
6.685272 111
6.710424 226
6.735576 33
6.760728 205
6.78588  212
6.811031 413
6.836183 209
6.861335 417
6.886487 243
6.911639 384
6.93679  556
6.961942 585
6.987094 768
7.012246 671
7.037398 826
7.06255  996
7.087701 1078
7.112853 1253
7.138005 1409
7.163157 1623
7.188309 2042
7.21346  2474
7.238612 3284
7.263764 5198
7.288916 8205
7.314068 6967
7.33922  5539
7.364371 1939
7.389524 636
7.414675 436
7.439827 251
7.464979 95
7.49013  66
7.515283 120
7.540434 131
7.565586 0
7.590738 50
7.61589  26
7.641042 0
7.666193 173
7.691345 8
7.716497 118
7.741649 0
7.7668   0
7.791953 0
7.817104 0
7.842256 51
7.867408 35
7.89256  155
7.917712 14
7.942863 85
7.968015 136
7.993167 252
8.018319 136
8.04347  233
8.068623 152
8.093775 253
8.118926 275
8.144078 393
8.16923  352
8.194382 496
8.219534 411
8.244685 624
8.269837 829
8.294989 744
8.320141 944
8.345292 1141
8.370444 1419
8.395597 2017
8.420748 2883
8.4459   3108
8.471051 2991
8.496203 1360
8.521356 526
8.546507 342
8.571659 254
8.59681  144
8.621963 162
8.647115 211
8.672266 220
8.697418 72
8.722569 179
8.747722 107
8.772874 118
8.798025 101
8.823177 174
8.848329 59
8.873481 181
8.898633 50
8.923784 106
8.948936 73
8.974088 116
8.99924  158
9.024392 89
9.049543 170
9.074696 38
9.099847 117
9.124999 38
9.150151 37
9.175303 43
9.200455 13
9.225606 0
9.250758 153
9.27591  5
9.301062 0
9.326214 0
9.351365 7
9.376517 0
9.40167  0
9.426821 0
9.451973 0
9.477124 45
9.502276 11
9.527429 4
9.55258  33
9.577732 0
9.602883 0
9.628036 0
9.653188 35
9.678339 0
9.703491 0
9.728642 40
9.753795 20
9.778947 11
9.804098 34
9.82925  21
9.854402 10
9.879554 67
9.904706 0
9.929857 31
9.955009 0
9.980161 0
10.00531 83
