Commander Sample ID
5.0001   49
5.025252 49
5.050404 163
5.075556 140
5.100708 0
5.125859 183
5.151011 111
5.176163 197
5.201315 90
5.226467 26
5.251618 66
5.27677  73
5.301922 101
5.327074 42
5.352226 0
5.377378 125
5.402529 199
5.427681 79
5.452833 42
5.477985 127
5.503137 84
5.528288 31
5.55344  75
5.578592 156
5.603744 13
5.628896 76
5.654047 197
5.679199 86
5.704351 21
5.729503 0
5.754655 0
5.779807 0
5.804958 125
5.83011  87
5.855262 0
5.880414 136
5.905566 0
5.930717 76
5.955869 72
5.981021 33
6.006173 4
6.031325 0
6.056477 6
6.081628 84
6.106781 0
6.131932 0
6.157084 0
6.182236 177
6.207387 151
6.23254  2
6.257691 159
6.282843 156
6.307995 52
6.333147 0
6.358299 49
6.383451 58
6.408602 0
6.433754 0
6.458906 45
6.484058 130
6.50921  30
6.534361 81
6.559513 64
6.584665 110
6.609817 109
6.634969 81
6.66012  8
6.685272 161
6.710424 88
6.735576 164
6.760728 235
6.78588  124
6.811031 253
6.836183 197
6.861335 262
6.886487 477
6.911639 380
6.93679  486
6.961942 445
6.987094 597
7.012246 547
7.037398 873
7.06255  857
7.087701 1142
7.112853 1359
7.138005 1600
7.163157 1841
7.188309 2235
7.21346  2883
7.238612 3643
7.263764 4992
7.288916 6107
7.314068 5589
7.33922  3224
7.364371 1331
7.389524 836
7.414675 359
7.439827 280
7.464979 179
7.49013  182
7.515283 173
7.540434 56
7.565586 101
7.590738 75
7.61589  11
7.641042 40
7.666193 1
7.691345 138
7.716497 34
7.741649 136
7.7668   0
7.791953 15
7.817104 35
7.842256 0
7.867408 122
7.89256  61
7.917712 2
7.942863 67
7.968015 230
7.993167 47
8.018319 166
8.04347  171
8.068623 268
8.093775 155
8.118926 360
8.144078 236
8.16923  458
8.194382 424
8.219534 564
8.244685 632
8.269837 715
8.294989 870
8.320141 1055
8.345292 1379
8.370444 2000
8.395597 2640
8.420748 3271
8.4459   3426
8.471051 2008
8.496203 904
8.521356 423
8.546507 279
8.571659 181
8.59681  121
8.621963 177
8.647115 150
8.672266 194
8.697418 114
8.722569 211
8.747722 30
8.772874 172
8.798025 56
8.823177 184
8.848329 87
8.873481 97
8.898633 24
8.923784 73
8.948936 52
8.974088 21
8.99924  18
9.024392 90
9.049543 0
9.074696 0
9.099847 8
9.124999 0
9.150151 0
9.175303 4
9.200455 0
9.225606 0
9.250758 0
9.27591  0
9.301062 0
9.326214 0
9.351365 0
9.376517 0
9.40167  0
9.426821 0
9.451973 0
9.477124 0
9.502276 0
9.527429 0
9.55258  0
9.577732 0
9.602883 0
9.628036 0
9.653188 0
9.678339 0
9.703491 0
9.728642 28
9.753795 0
9.778947 26
9.804098 0
9.82925  29
9.854402 0
9.879554 0
9.904706 25
9.929857 21
9.955009 33
9.980161 0
10.00531 0
