Commander Sample ID
5.0001   108
5.025252 108
5.050404 101
5.075556 3
5.100708 88
5.125859 84
5.151011 80
5.176163 0
5.201315 68
5.226467 104
5.251618 206
5.27677  136
5.301922 194
5.327074 65
5.352226 132
5.377378 310
5.402529 209
5.427681 198
5.452833 336
5.477985 307
5.503137 305
5.528288 477
5.55344  306
5.578592 440
5.603744 510
5.628896 581
5.654047 787
5.679199 699
5.704351 1003
5.729503 934
5.754655 1148
5.779807 1449
5.804958 1447
5.83011  1741
5.855262 2196
5.880414 2165
5.905566 2813
5.930717 2967
5.955869 3863
5.981021 4565
6.006173 5112
6.031325 6245
6.056477 5440
6.081628 4437
6.106781 3135
6.131932 1961
6.157084 1500
6.182236 826
6.207387 665
6.23254  407
6.257691 430
6.282843 316
6.307995 264
6.333147 154
6.358299 224
6.383451 239
6.408602 149
6.433754 61
6.458906 0
6.484058 162
6.50921  0
6.534361 0
6.559513 18
6.584665 66
6.609817 0
6.634969 64
6.66012  122
6.685272 43
6.710424 54
6.735576 0
6.760728 0
6.78588  0
6.811031 132
6.836183 71
6.861335 105
6.886487 0
6.911639 91
6.93679  56
6.961942 43
6.987094 57
7.012246 90
7.037398 39
7.06255  121
7.087701 65
7.112853 98
7.138005 110
7.163157 176
7.188309 177
7.21346  526
7.238612 446
7.263764 394
7.288916 122
7.314068 197
7.33922  90
7.364371 254
7.389524 126
7.414675 0
7.439827 145
7.464979 83
7.49013  112
7.515283 146
7.540434 205
7.565586 33
7.590738 118
7.61589  51
7.641042 137
7.666193 141
7.691345 92
7.716497 75
7.741649 95
7.7668   133
7.791953 58
7.817104 122
7.842256 86
7.867408 42
7.89256  204
7.917712 19
7.942863 189
7.968015 114
7.993167 57
8.018319 167
8.04347  11
8.068623 233
8.093775 49
8.118926 100
8.144078 78
8.16923  208
8.194382 143
8.219534 153
8.244685 312
8.269837 255
8.294989 328
8.320141 351
8.345292 477
8.370444 556
8.395597 693
8.420748 730
8.4459   735
8.471051 1069
8.496203 980
8.521356 1216
8.546507 1130
8.571659 1116
8.59681  848
8.621963 770
8.647115 615
8.672266 466
8.697418 421
8.722569 356
8.747722 174
8.772874 252
8.798025 185
8.823177 195
8.848329 79
8.873481 191
8.898633 173
8.923784 114
8.948936 143
8.974088 157
8.99924  64
9.024392 188
9.049543 31
9.074696 210
9.099847 114
9.124999 97
9.150151 69
9.175303 97
9.200455 40
9.225606 230
9.250758 18
9.27591  155
9.301062 45
9.326214 146
9.351365 5
9.376517 52
9.40167  93
9.426821 26
9.451973 109
9.477124 108
9.502276 115
9.527429 22
9.55258  45
9.577732 65
9.602883 24
9.628036 130
9.653188 0
9.678339 9
9.703491 33
9.728642 7
9.753795 3
9.778947 75
9.804098 133
9.82925  0
9.854402 91
9.879554 9
9.904706 18
9.929857 57
9.955009 38
9.980161 0
10.00531 61
