Commander Sample ID
5.0001   112
5.025252 112
5.050404 56
5.075556 52
5.100708 83
5.125859 8
5.151011 74
5.176163 105
5.201315 36
5.226467 13
5.251618 0
5.27677  58
5.301922 0
5.327074 54
5.352226 9
5.377378 108
5.402529 0
5.427681 174
5.452833 3
5.477985 53
5.503137 0
5.528288 149
5.55344  114
5.578592 43
5.603744 87
5.628896 0
5.654047 43
5.679199 48
5.704351 135
5.729503 9
5.754655 108
5.779807 68
5.804958 0
5.83011  178
5.855262 108
5.880414 16
5.905566 103
5.930717 11
5.955869 100
5.981021 26
6.006173 54
6.031325 49
6.056477 48
6.081628 160
6.106781 67
6.131932 139
6.157084 228
6.182236 72
6.207387 138
6.23254  102
6.257691 93
6.282843 198
6.307995 124
6.333147 303
6.358299 7
6.383451 305
6.408602 150
6.433754 286
6.458906 203
6.484058 265
6.50921  246
6.534361 336
6.559513 404
6.584665 390
6.609817 407
6.634969 407
6.66012  360
6.685272 435
6.710424 447
6.735576 426
6.760728 675
6.78588  573
6.811031 751
6.836183 673
6.861335 668
6.886487 794
6.911639 782
6.93679  826
6.961942 953
6.987094 1150
7.012246 954
7.037398 1298
7.06255  1360
7.087701 1360
7.112853 1689
7.138005 1739
7.163157 2132
7.188309 2194
7.21346  2454
7.238612 2600
7.263764 2354
7.288916 2193
7.314068 1551
7.33922  1233
7.364371 846
7.389524 541
7.414675 613
7.439827 491
7.464979 439
7.49013  267
7.515283 330
7.540434 46
7.565586 226
7.590738 246
7.61589  75
7.641042 199
7.666193 63
7.691345 88
7.716497 81
7.741649 52
7.7668   140
7.791953 26
7.817104 28
7.842256 0
7.867408 49
7.89256  106
7.917712 0
7.942863 166
7.968015 72
7.993167 216
8.018319 68
8.04347  70
8.068623 124
8.093775 156
8.118926 217
8.144078 221
8.16923  280
8.194382 327
8.219534 386
8.244685 409
8.269837 496
8.294989 478
8.320141 832
8.345292 779
8.370444 870
8.395597 883
8.420748 705
8.4459   539
8.471051 380
8.496203 220
8.521356 145
8.546507 236
8.571659 36
8.59681  63
8.621963 72
8.647115 0
8.672266 122
8.697418 0
8.722569 51
8.747722 87
8.772874 11
8.798025 0
8.823177 0
8.848329 92
8.873481 21
8.898633 83
8.923784 0
8.948936 0
8.974088 0
8.99924  42
9.024392 4
9.049543 0
9.074696 88
9.099847 40
9.124999 0
9.150151 30
9.175303 0
9.200455 75
9.225606 0
9.250758 10
9.27591  46
9.301062 12
9.326214 0
9.351365 61
9.376517 52
9.40167  0
9.426821 94
9.451973 0
9.477124 10
9.502276 41
9.527429 61
9.55258  6
9.577732 19
9.602883 65
9.628036 0
9.653188 56
9.678339 49
9.703491 29
9.728642 73
9.753795 71
9.778947 23
9.804098 59
9.82925  16
9.854402 22
9.879554 74
9.904706 13
9.929857 28
9.955009 44
9.980161 38
10.00531 0
