Commander Sample ID
5.0001   0
5.025252 0
5.050404 10
5.075556 216
5.100708 98
5.125859 49
5.151011 43
5.176163 100
5.201315 49
5.226467 147
5.251618 137
5.27677  7
5.301922 212
5.327074 112
5.352226 67
5.377378 70
5.402529 0
5.427681 19
5.452833 14
5.477985 0
5.503137 48
5.528288 82
5.55344  59
5.578592 0
5.603744 0
5.628896 5
5.654047 22
5.679199 1
5.704351 0
5.729503 22
5.754655 0
5.779807 0
5.804958 0
5.83011  0
5.855262 0
5.880414 0
5.905566 0
5.930717 0
5.955869 0
5.981021 0
6.006173 0
6.031325 0
6.056477 0
6.081628 0
6.106781 0
6.131932 0
6.157084 0
6.182236 0
6.207387 0
6.23254  0
6.257691 0
6.282843 0
6.307995 0
6.333147 26
6.358299 0
6.383451 34
6.408602 0
6.433754 0
6.458906 80
6.484058 38
6.50921  58
6.534361 47
6.559513 93
6.584665 44
6.609817 80
6.634969 27
6.66012  11
6.685272 80
6.710424 154
6.735576 160
6.760728 303
6.78588  168
6.811031 339
6.836183 214
6.861335 341
6.886487 363
6.911639 485
6.93679  655
6.961942 525
6.987094 732
7.012246 722
7.037398 1026
7.06255  1116
7.087701 1352
7.112853 1591
7.138005 1908
7.163157 2320
7.188309 2762
7.21346  3561
7.238612 4622
7.263764 5124
7.288916 4959
7.314068 4423
7.33922  2887
7.364371 942
7.389524 447
7.414675 174
7.439827 142
7.464979 81
7.49013  63
7.515283 95
7.540434 99
7.565586 66
7.590738 0
7.61589  60
7.641042 18
7.666193 0
7.691345 83
7.716497 0
7.741649 22
7.7668   0
7.791953 0
7.817104 23
7.842256 91
7.867408 42
7.89256  60
7.917712 192
7.942863 68
7.968015 123
7.993167 111
8.018319 241
8.04347  75
8.068623 212
8.093775 287
8.118926 284
8.144078 373
8.16923  276
8.194382 525
8.219534 387
8.244685 712
8.269837 786
8.294989 872
8.320141 1180
8.345292 1382
8.370444 1867
8.395597 2224
8.420748 2374
8.4459   1927
8.471051 1394
8.496203 596
8.521356 168
8.546507 198
8.571659 65
8.59681  52
8.621963 71
8.647115 0
8.672266 118
8.697418 48
8.722569 54
8.747722 52
8.772874 29
8.798025 0
8.823177 6
8.848329 23
8.873481 57
8.898633 0
8.923784 17
8.948936 43
8.974088 89
8.99924  88
9.024392 80
9.049543 57
9.074696 16
9.099847 31
9.124999 0
9.150151 95
9.175303 31
9.200455 64
9.225606 49
9.250758 21
9.27591  45
9.301062 85
9.326214 93
9.351365 92
9.376517 84
9.40167  80
9.426821 99
9.451973 79
9.477124 49
9.502276 38
9.527429 28
9.55258  136
9.577732 91
9.602883 130
9.628036 65
9.653188 128
9.678339 26
9.703491 116
9.728642 127
9.753795 12
9.778947 129
9.804098 25
9.82925  76
9.854402 98
9.879554 22
9.904706 79
9.929857 0
9.955009 12
9.980161 39
10.00531 2
