Commander Sample ID
5.0001   34
5.025252 34
5.050404 178
5.075556 56
5.100708 51
5.125859 155
5.151011 64
5.176163 28
5.201315 154
5.226467 118
5.251618 125
5.27677  143
5.301922 104
5.327074 58
5.352226 63
5.377378 44
5.402529 8
5.427681 0
5.452833 48
5.477985 91
5.503137 202
5.528288 15
5.55344  141
5.578592 101
5.603744 0
5.628896 0
5.654047 3
5.679199 165
5.704351 0
5.729503 38
5.754655 29
5.779807 178
5.804958 84
5.83011  63
5.855262 58
5.880414 0
5.905566 51
5.930717 59
5.955869 1
5.981021 0
6.006173 0
6.031325 81
6.056477 180
6.081628 90
6.106781 0
6.131932 146
6.157084 142
6.182236 76
6.207387 29
6.23254  7
6.257691 18
6.282843 0
6.307995 51
6.333147 111
6.358299 11
6.383451 48
6.408602 44
6.433754 89
6.458906 19
6.484058 0
6.50921  60
6.534361 0
6.559513 66
6.584665 6
6.609817 109
6.634969 0
6.66012  107
6.685272 11
6.710424 229
6.735576 139
6.760728 59
6.78588  215
6.811031 83
6.836183 250
6.861335 198
6.886487 148
6.911639 306
6.93679  296
6.961942 297
6.987094 361
7.012246 603
7.037398 566
7.06255  666
7.087701 576
7.112853 1066
7.138005 1122
7.163157 1333
7.188309 1680
7.21346  2170
7.238612 2695
7.263764 3847
7.288916 4966
7.314068 5159
7.33922  2866
7.364371 760
7.389524 384
7.414675 65
7.439827 124
7.464979 77
7.49013  4
7.515283 22
7.540434 5
7.565586 30
7.590738 0
7.61589  54
7.641042 0
7.666193 61
7.691345 22
7.716497 0
7.741649 24
7.7668   0
7.791953 0
7.817104 6
7.842256 0
7.867408 0
7.89256  0
7.917712 0
7.942863 0
7.968015 0
7.993167 0
8.018319 8
8.04347  0
8.068623 20
8.093775 178
8.118926 12
8.144078 198
8.16923  170
8.194382 205
8.219534 263
8.244685 373
8.269837 281
8.294989 503
8.320141 574
8.345292 830
8.370444 980
8.395597 1553
8.420748 1985
8.4459   2264
8.471051 1558
8.496203 591
8.521356 206
8.546507 136
8.571659 42
8.59681  69
8.621963 105
8.647115 79
8.672266 63
8.697418 68
8.722569 82
8.747722 56
8.772874 48
8.798025 13
8.823177 31
8.848329 61
8.873481 133
8.898633 97
8.923784 40
8.948936 41
8.974088 28
8.99924  51
9.024392 32
9.049543 57
9.074696 3
9.099847 84
9.124999 30
9.150151 100
9.175303 131
9.200455 6
9.225606 139
9.250758 121
9.27591  46
9.301062 128
9.326214 49
9.351365 153
9.376517 77
9.40167  88
9.426821 122
9.451973 20
9.477124 151
9.502276 20
9.527429 98
9.55258  85
9.577732 90
9.602883 70
9.628036 67
9.653188 110
9.678339 23
9.703491 139
9.728642 20
9.753795 54
9.778947 73
9.804098 51
9.82925  50
9.854402 46
9.879554 48
9.904706 12
9.929857 29
9.955009 66
9.980161 32
10.00531 31
