Commander Sample ID
5.0001   101
5.025252 101
5.050404 60
5.075556 41
5.100708 111
5.125859 333
5.151011 265
5.176163 122
5.201315 0
5.226467 43
5.251618 146
5.27677  12
5.301922 97
5.327074 0
5.352226 146
5.377378 114
5.402529 81
5.427681 44
5.452833 73
5.477985 145
5.503137 15
5.528288 67
5.55344  115
5.578592 84
5.603744 0
5.628896 56
5.654047 50
5.679199 124
5.704351 110
5.729503 80
5.754655 30
5.779807 29
5.804958 119
5.83011  144
5.855262 65
5.880414 122
5.905566 45
5.930717 0
5.955869 85
5.981021 69
6.006173 42
6.031325 8
6.056477 141
6.081628 0
6.106781 37
6.131932 13
6.157084 0
6.182236 43
6.207387 0
6.23254  25
6.257691 20
6.282843 0
6.307995 129
6.333147 15
6.358299 88
6.383451 0
6.408602 0
6.433754 88
6.458906 3
6.484058 83
6.50921  110
6.534361 26
6.559513 35
6.584665 209
6.609817 46
6.634969 172
6.66012  83
6.685272 148
6.710424 10
6.735576 230
6.760728 195
6.78588  252
6.811031 201
6.836183 199
6.861335 419
6.886487 369
6.911639 481
6.93679  486
6.961942 644
6.987094 613
7.012246 838
7.037398 829
7.06255  1053
7.087701 1253
7.112853 1635
7.138005 1610
7.163157 2078
7.188309 2361
7.21346  2799
7.238612 3519
7.263764 4154
7.288916 5447
7.314068 6871
7.33922  6911
7.364371 5184
7.389524 2813
7.414675 1658
7.439827 848
7.464979 549
7.49013  183
7.515283 155
7.540434 122
7.565586 27
7.590738 61
7.61589  0
7.641042 104
7.666193 83
7.691345 44
7.716497 0
7.741649 0
7.7668   0
7.791953 0
7.817104 0
7.842256 0
7.867408 2
7.89256  0
7.917712 110
7.942863 8
7.968015 125
7.993167 59
8.018319 138
8.04347  46
8.068623 225
8.093775 218
8.118926 319
8.144078 242
8.16923  443
8.194382 459
8.219534 602
8.244685 654
8.269837 584
8.294989 952
8.320141 1104
8.345292 1289
8.370444 1628
8.395597 1909
8.420748 2539
8.4459   3209
8.471051 3518
8.496203 2977
8.521356 1718
8.546507 931
8.571659 711
8.59681  442
8.621963 278
8.647115 198
8.672266 130
8.697418 156
8.722569 47
8.747722 364
8.772874 111
8.798025 29
8.823177 150
8.848329 79
8.873481 121
8.898633 91
8.923784 55
8.948936 148
8.974088 93
8.99924  11
9.024392 112
9.049543 0
9.074696 0
9.099847 17
9.124999 0
9.150151 0
9.175303 0
9.200455 24
9.225606 0
9.250758 0
9.27591  14
9.301062 0
9.326214 0
9.351365 0
9.376517 0
9.40167  0
9.426821 0
9.451973 0
9.477124 0
9.502276 0
9.527429 0
9.55258  0
9.577732 0
9.602883 7
9.628036 0
9.653188 0
9.678339 0
9.703491 0
9.728642 0
9.753795 21
9.778947 8
9.804098 19
9.82925  30
9.854402 24
9.879554 17
9.904706 0
9.929857 51
9.955009 46
9.980161 0
10.00531 62
