Commander Sample ID
5.0001   151
5.025252 151
5.050404 78
5.075556 27
5.100708 35
5.125859 167
5.151011 56
5.176163 49
5.201315 0
5.226467 0
5.251618 43
5.27677  64
5.301922 72
5.327074 61
5.352226 22
5.377378 0
5.402529 88
5.427681 104
5.452833 0
5.477985 0
5.503137 0
5.528288 59
5.55344  38
5.578592 25
5.603744 0
5.628896 81
5.654047 0
5.679199 0
5.704351 32
5.729503 0
5.754655 36
5.779807 0
5.804958 0
5.83011  16
5.855262 0
5.880414 0
5.905566 0
5.930717 0
5.955869 49
5.981021 0
6.006173 0
6.031325 0
6.056477 0
6.081628 0
6.106781 0
6.131932 0
6.157084 0
6.182236 0
6.207387 0
6.23254  0
6.257691 0
6.282843 0
6.307995 0
6.333147 0
6.358299 140
6.383451 0
6.408602 0
6.433754 0
6.458906 2
6.484058 14
6.50921  122
6.534361 0
6.559513 0
6.584665 18
6.609817 13
6.634969 72
6.66012  74
6.685272 168
6.710424 5
6.735576 285
6.760728 149
6.78588  111
6.811031 358
6.836183 370
6.861335 359
6.886487 457
6.911639 640
6.93679  615
6.961942 679
6.987094 982
7.012246 1040
7.037398 1431
7.06255  1545
7.087701 1786
7.112853 2301
7.138005 3058
7.163157 4624
7.188309 6895
7.21346  6930
7.238612 6267
7.263764 4822
7.288916 2268
7.314068 619
7.33922  476
7.364371 142
7.389524 129
7.414675 61
7.439827 26
7.464979 136
7.49013  40
7.515283 0
7.540434 67
7.565586 0
7.590738 53
7.61589  11
7.641042 0
7.666193 2
7.691345 18
7.716497 4
7.741649 0
7.7668   12
7.791953 28
7.817104 53
7.842256 54
7.867408 139
7.89256  24
7.917712 88
7.942863 205
7.968015 17
7.993167 199
8.018319 203
8.04347  162
8.068623 220
8.093775 316
8.118926 386
8.144078 500
8.16923  439
8.194382 563
8.219534 693
8.244685 916
8.269837 867
8.294989 1398
8.320141 1695
8.345292 2226
8.370444 1984
8.395597 1673
8.420748 976
8.4459   289
8.471051 325
8.496203 140
8.521356 120
8.546507 74
8.571659 122
8.59681  178
8.621963 165
8.647115 138
8.672266 117
8.697418 84
8.722569 68
8.747722 116
8.772874 225
8.798025 73
8.823177 163
8.848329 25
8.873481 189
8.898633 67
8.923784 115
8.948936 86
8.974088 45
8.99924  100
9.024392 47
9.049543 78
9.074696 13
9.099847 23
9.124999 45
9.150151 58
9.175303 54
9.200455 0
9.225606 29
9.250758 0
9.27591  0
9.301062 0
9.326214 2
9.351365 0
9.376517 0
9.40167  0
9.426821 18
9.451973 0
9.477124 29
9.502276 0
9.527429 0
9.55258  0
9.577732 0
9.602883 10
9.628036 0
9.653188 0
9.678339 0
9.703491 0
9.728642 0
9.753795 66
9.778947 9
9.804098 88
9.82925  0
9.854402 0
9.879554 29
9.904706 0
9.929857 0
9.955009 0
9.980161 72
10.00531 39
