Commander Sample ID
5.0001   0
5.025252 0
5.050404 71
5.075556 6
5.100708 162
5.125859 16
5.151011 137
5.176163 96
5.201315 0
5.226467 43
5.251618 30
5.27677  151
5.301922 0
5.327074 132
5.352226 6
5.377378 140
5.402529 88
5.427681 117
5.452833 135
5.477985 23
5.503137 155
5.528288 0
5.55344  167
5.578592 71
5.603744 202
5.628896 280
5.654047 155
5.679199 268
5.704351 304
5.729503 369
5.754655 224
5.779807 353
5.804958 388
5.83011  559
5.855262 569
5.880414 752
5.905566 810
5.930717 956
5.955869 1549
5.981021 1637
6.006173 1883
6.031325 1640
6.056477 1338
6.081628 825
6.106781 577
6.131932 470
6.157084 163
6.182236 216
6.207387 124
6.23254  38
6.257691 170
6.282843 165
6.307995 87
6.333147 173
6.358299 90
6.383451 141
6.408602 140
6.433754 235
6.458906 87
6.484058 206
6.50921  126
6.534361 272
6.559513 216
6.584665 249
6.609817 307
6.634969 335
6.66012  406
6.685272 352
6.710424 360
6.735576 478
6.760728 518
6.78588  526
6.811031 630
6.836183 545
6.861335 683
6.886487 561
6.911639 629
6.93679  527
6.961942 653
6.987094 589
7.012246 549
7.037398 614
7.06255  534
7.087701 749
7.112853 735
7.138005 655
7.163157 601
7.188309 611
7.21346  628
7.238612 535
7.263764 550
7.288916 373
7.314068 514
7.33922  566
7.364371 411
7.389524 397
7.414675 255
7.439827 276
7.464979 144
7.49013  180
7.515283 31
7.540434 210
7.565586 133
7.590738 62
7.61589  85
7.641042 105
7.666193 0
7.691345 79
7.716497 37
7.741649 0
7.7668   99
7.791953 0
7.817104 0
7.842256 0
7.867408 1
7.89256  16
7.917712 0
7.942863 0
7.968015 0
7.993167 30
8.018319 0
8.04347  0
8.068623 38
8.093775 0
8.118926 0
8.144078 68
8.16923  6
8.194382 0
8.219534 47
8.244685 105
8.269837 2
8.294989 110
8.320141 78
8.345292 80
8.370444 192
8.395597 74
8.420748 158
8.4459   342
8.471051 228
8.496203 271
8.521356 348
8.546507 194
8.571659 268
8.59681  217
8.621963 150
8.647115 153
8.672266 189
8.697418 136
8.722569 34
8.747722 29
8.772874 73
8.798025 102
8.823177 83
8.848329 106
8.873481 27
8.898633 102
8.923784 40
8.948936 59
8.974088 0
8.99924  85
9.024392 61
9.049543 11
9.074696 20
9.099847 29
9.124999 0
9.150151 54
9.175303 19
9.200455 14
9.225606 78
9.250758 45
9.27591  16
9.301062 0
9.326214 0
9.351365 18
9.376517 0
9.40167  0
9.426821 0
9.451973 50
9.477124 19
9.502276 0
9.527429 0
9.55258  49
9.577732 0
9.602883 1
9.628036 0
9.653188 0
9.678339 3
9.703491 0
9.728642 9
9.753795 32
9.778947 31
9.804098 0
9.82925  45
9.854402 0
9.879554 4
9.904706 0
9.929857 0
9.955009 51
9.980161 0
10.00531 28
