Commander Sample ID
5.0001   155
5.025252 155
5.050404 80
5.075556 0
5.100708 34
5.125859 37
5.151011 188
5.176163 0
5.201315 112
5.226467 46
5.251618 52
5.27677  67
5.301922 43
5.327074 178
5.352226 100
5.377378 0
5.402529 104
5.427681 169
5.452833 29
5.477985 159
5.503137 0
5.528288 1
5.55344  31
5.578592 0
5.603744 114
5.628896 18
5.654047 63
5.679199 88
5.704351 40
5.729503 37
5.754655 0
5.779807 86
5.804958 97
5.83011  0
5.855262 26
5.880414 78
5.905566 118
5.930717 49
5.955869 0
5.981021 50
6.006173 90
6.031325 19
6.056477 0
6.081628 88
6.106781 0
6.131932 0
6.157084 0
6.182236 132
6.207387 25
6.23254  102
6.257691 0
6.282843 6
6.307995 19
6.333147 77
6.358299 50
6.383451 1
6.408602 15
6.433754 0
6.458906 77
6.484058 0
6.50921  7
6.534361 108
6.559513 105
6.584665 69
6.609817 0
6.634969 0
6.66012  24
6.685272 0
6.710424 91
6.735576 88
6.760728 31
6.78588  71
6.811031 42
6.836183 41
6.861335 0
6.886487 157
6.911639 59
6.93679  189
6.961942 136
6.987094 101
7.012246 349
7.037398 115
7.06255  382
7.087701 299
7.112853 426
7.138005 558
7.163157 517
7.188309 766
7.21346  850
7.238612 1251
7.263764 1992
7.288916 3479
7.314068 2123
7.33922  626
7.364371 467
7.389524 230
7.414675 157
7.439827 0
7.464979 103
7.49013  1
7.515283 0
7.540434 0
7.565586 43
7.590738 30
7.61589  9
7.641042 95
7.666193 52
7.691345 0
7.716497 0
7.741649 116
7.7668   0
7.791953 0
7.817104 89
7.842256 27
7.867408 4
7.89256  0
7.917712 44
7.942863 49
7.968015 71
7.993167 0
8.018319 3
8.04347  97
8.068623 69
8.093775 29
8.118926 0
8.144078 157
8.16923  70
8.194382 92
8.219534 182
8.244685 189
8.269837 285
8.294989 269
8.320141 358
8.345292 405
8.370444 551
8.395597 910
8.420748 1231
8.4459   1126
8.471051 448
8.496203 174
8.521356 221
8.546507 74
8.571659 147
8.59681  67
8.621963 46
8.647115 154
8.672266 168
8.697418 19
8.722569 160
8.747722 107
8.772874 0
8.798025 120
8.823177 134
8.848329 72
8.873481 102
8.898633 97
8.923784 89
8.948936 140
8.974088 167
8.99924  96
9.024392 208
9.049543 71
9.074696 87
9.099847 143
9.124999 120
9.150151 131
9.175303 137
9.200455 116
9.225606 130
9.250758 67
9.27591  153
9.301062 124
9.326214 160
9.351365 75
9.376517 182
9.40167  128
9.426821 118
9.451973 142
9.477124 59
9.502276 148
9.527429 157
9.55258  120
9.577732 140
9.602883 168
9.628036 126
9.653188 106
9.678339 79
9.703491 178
9.728642 52
9.753795 82
9.778947 141
9.804098 58
9.82925  46
9.854402 108
9.879554 47
9.904706 15
9.929857 30
9.955009 59
9.980161 24
10.00531 18
