Commander Sample ID
5.0001   104
5.025252 104
5.050404 43
5.075556 102
5.100708 83
5.125859 180
5.151011 47
5.176163 0
5.201315 38
5.226467 102
5.251618 164
5.27677  53
5.301922 10
5.327074 66
5.352226 62
5.377378 64
5.402529 38
5.427681 78
5.452833 75
5.477985 0
5.503137 0
5.528288 105
5.55344  23
5.578592 81
5.603744 136
5.628896 28
5.654047 106
5.679199 35
5.704351 244
5.729503 53
5.754655 27
5.779807 0
5.804958 261
5.83011  16
5.855262 66
5.880414 0
5.905566 143
5.930717 33
5.955869 80
5.981021 160
6.006173 67
6.031325 0
6.056477 18
6.081628 0
6.106781 77
6.131932 82
6.157084 111
6.182236 104
6.207387 0
6.23254  0
6.257691 24
6.282843 63
6.307995 78
6.333147 7
6.358299 48
6.383451 41
6.408602 0
6.433754 21
6.458906 64
6.484058 0
6.50921  23
6.534361 0
6.559513 99
6.584665 37
6.609817 0
6.634969 0
6.66012  0
6.685272 0
6.710424 149
6.735576 33
6.760728 51
6.78588  43
6.811031 43
6.836183 162
6.861335 16
6.886487 96
6.911639 65
6.93679  125
6.961942 98
6.987094 120
7.012246 104
7.037398 0
7.06255  258
7.087701 182
7.112853 153
7.138005 301
7.163157 341
7.188309 478
7.21346  525
7.238612 678
7.263764 760
7.288916 1065
7.314068 1166
7.33922  584
7.364371 253
7.389524 141
7.414675 83
7.439827 12
7.464979 52
7.49013  0
7.515283 0
7.540434 108
7.565586 0
7.590738 81
7.61589  136
7.641042 65
7.666193 32
7.691345 20
7.716497 46
7.741649 205
7.7668   0
7.791953 0
7.817104 47
7.842256 81
7.867408 33
7.89256  9
7.917712 14
7.942863 76
7.968015 46
7.993167 57
8.018319 11
8.04347  100
8.068623 76
8.093775 149
8.118926 162
8.144078 2
8.16923  131
8.194382 106
8.219534 206
8.244685 172
8.269837 216
8.294989 229
8.320141 367
8.345292 422
8.370444 537
8.395597 739
8.420748 956
8.4459   1195
8.471051 880
8.496203 408
8.521356 239
8.546507 117
8.571659 94
8.59681  32
8.621963 109
8.647115 148
8.672266 58
8.697418 159
8.722569 70
8.747722 57
8.772874 129
8.798025 94
8.823177 149
8.848329 54
8.873481 58
8.898633 40
8.923784 14
8.948936 46
8.974088 122
8.99924  13
9.024392 51
9.049543 16
9.074696 145
9.099847 76
9.124999 0
9.150151 0
9.175303 0
9.200455 0
9.225606 0
9.250758 0
9.27591  0
9.301062 0
9.326214 0
9.351365 0
9.376517 0
9.40167  0
9.426821 0
9.451973 0
9.477124 0
9.502276 0
9.527429 0
9.55258  0
9.577732 0
9.602883 0
9.628036 0
9.653188 28
9.678339 0
9.703491 0
9.728642 9
9.753795 0
9.778947 2
9.804098 0
9.82925  0
9.854402 0
9.879554 12
9.904706 0
9.929857 0
9.955009 19
9.980161 28
10.00531 20
