Commander Sample ID
5.0001   112
5.025252 112
5.050404 125
5.075556 0
5.100708 0
5.125859 126
5.151011 104
5.176163 70
5.201315 71
5.226467 90
5.251618 70
5.27677  387
5.301922 222
5.327074 260
5.352226 212
5.377378 293
5.402529 273
5.427681 561
5.452833 345
5.477985 404
5.503137 557
5.528288 675
5.55344  636
5.578592 903
5.603744 789
5.628896 1042
5.654047 1189
5.679199 1401
5.704351 1604
5.729503 1890
5.754655 2039
5.779807 2529
5.804958 2996
5.83011  3545
5.855262 4199
5.880414 4780
5.905566 5767
5.930717 6899
5.955869 8660
5.981021 10198
6.006173 10158
6.031325 8228
6.056477 5032
6.081628 2999
6.106781 1771
6.131932 1184
6.157084 866
6.182236 574
6.207387 377
6.23254  342
6.257691 132
6.282843 217
6.307995 171
6.333147 127
6.358299 166
6.383451 131
6.408602 123
6.433754 88
6.458906 33
6.484058 104
6.50921  47
6.534361 0
6.559513 0
6.584665 0
6.609817 0
6.634969 0
6.66012  0
6.685272 0
6.710424 0
6.735576 0
6.760728 0
6.78588  0
6.811031 0
6.836183 0
6.861335 0
6.886487 0
6.911639 0
6.93679  0
6.961942 0
6.987094 0
7.012246 0
7.037398 0
7.06255  0
7.087701 0
7.112853 0
7.138005 0
7.163157 0
7.188309 0
7.21346  0
7.238612 0
7.263764 0
7.288916 0
7.314068 0
7.33922  0
7.364371 0
7.389524 0
7.414675 0
7.439827 0
7.464979 0
7.49013  0
7.515283 0
7.540434 0
7.565586 0
7.590738 0
7.61589  0
7.641042 0
7.666193 21
7.691345 0
7.716497 6
7.741649 0
7.7668   0
7.791953 0
7.817104 0
7.842256 87
7.867408 0
7.89256  0
7.917712 81
7.942863 37
7.968015 181
7.993167 229
8.018319 119
8.04347  173
8.068623 150
8.093775 334
8.118926 350
8.144078 254
8.16923  480
8.194382 457
8.219534 480
8.244685 694
8.269837 603
8.294989 965
8.320141 826
8.345292 1262
8.370444 1300
8.395597 1482
8.420748 1826
8.4459   2135
8.471051 2250
8.496203 2267
8.521356 2230
8.546507 1937
8.571659 1361
8.59681  1123
8.621963 705
8.647115 582
8.672266 453
8.697418 355
8.722569 326
8.747722 309
8.772874 432
8.798025 216
8.823177 214
8.848329 138
8.873481 270
8.898633 147
8.923784 171
8.948936 78
8.974088 94
8.99924  118
9.024392 76
9.049543 129
9.074696 56
9.099847 119
9.124999 114
9.150151 99
9.175303 166
9.200455 89
9.225606 129
9.250758 82
9.27591  109
9.301062 151
9.326214 113
9.351365 108
9.376517 122
9.40167  121
9.426821 121
9.451973 95
9.477124 161
9.502276 165
9.527429 56
9.55258  196
9.577732 159
9.602883 167
9.628036 119
9.653188 172
9.678339 147
9.703491 200
9.728642 167
9.753795 101
9.778947 170
9.804098 140
9.82925  53
9.854402 83
9.879554 3
9.904706 102
9.929857 0
9.955009 90
9.980161 0
10.00531 65
