Commander Sample ID
5.0001   35
5.025252 35
5.050404 84
5.075556 98
5.100708 44
5.125859 0
5.151011 118
5.176163 68
5.201315 41
5.226467 49
5.251618 5
5.27677  47
5.301922 74
5.327074 0
5.352226 0
5.377378 124
5.402529 75
5.427681 0
5.452833 171
5.477985 0
5.503137 0
5.528288 0
5.55344  0
5.578592 8
5.603744 0
5.628896 0
5.654047 20
5.679199 0
5.704351 11
5.729503 0
5.754655 0
5.779807 0
5.804958 0
5.83011  0
5.855262 0
5.880414 0
5.905566 0
5.930717 0
5.955869 0
5.981021 0
6.006173 0
6.031325 0
6.056477 0
6.081628 0
6.106781 11
6.131932 0
6.157084 0
6.182236 40
6.207387 0
6.23254  0
6.257691 3
6.282843 31
6.307995 0
6.333147 0
6.358299 77
6.383451 18
6.408602 0
6.433754 27
6.458906 56
6.484058 0
6.50921  21
6.534361 41
6.559513 119
6.584665 0
6.609817 76
6.634969 76
6.66012  18
6.685272 249
6.710424 82
6.735576 250
6.760728 200
6.78588  307
6.811031 233
6.836183 341
6.861335 340
6.886487 335
6.911639 433
6.93679  320
6.961942 333
6.987094 374
7.012246 336
7.037398 347
7.06255  514
7.087701 375
7.112853 437
7.138005 319
7.163157 517
7.188309 346
7.21346  635
7.238612 381
7.263764 618
7.288916 341
7.314068 572
7.33922  330
7.364371 343
7.389524 291
7.414675 337
7.439827 146
7.464979 307
7.49013  258
7.515283 154
7.540434 129
7.565586 172
7.590738 2
7.61589  187
7.641042 92
7.666193 30
7.691345 42
7.716497 121
7.741649 0
7.7668   80
7.791953 15
7.817104 50
7.842256 0
7.867408 30
7.89256  29
7.917712 34
7.942863 59
7.968015 77
7.993167 23
8.018319 0
8.04347  61
8.068623 6
8.093775 65
8.118926 0
8.144078 0
8.16923  0
8.194382 51
8.219534 0
8.244685 0
8.269837 6
8.294989 97
8.320141 20
8.345292 0
8.370444 0
8.395597 2
8.420748 117
8.4459   51
8.471051 16
8.496203 18
8.521356 104
8.546507 101
8.571659 98
8.59681  28
8.621963 11
8.647115 111
8.672266 90
8.697418 98
8.722569 150
8.747722 44
8.772874 35
8.798025 66
8.823177 58
8.848329 126
8.873481 18
8.898633 84
8.923784 202
8.948936 65
8.974088 162
8.99924  21
9.024392 44
9.049543 122
9.074696 3
9.099847 0
9.124999 82
9.150151 8
9.175303 110
9.200455 70
9.225606 22
9.250758 64
9.27591  51
9.301062 36
9.326214 78
9.351365 0
9.376517 16
9.40167  24
9.426821 28
9.451973 70
9.477124 9
9.502276 60
9.527429 55
9.55258  26
9.577732 76
9.602883 13
9.628036 54
9.653188 10
9.678339 34
9.703491 18
9.728642 0
9.753795 0
9.778947 0
9.804098 36
9.82925  12
9.854402 0
9.879554 1
9.904706 0
9.929857 81
9.955009 0
9.980161 73
10.00531 0
