Commander Sample ID
5.0001   15
5.025252 15
5.050404 70
5.075556 161
5.100708 8
5.125859 9
5.151011 22
5.176163 76
5.201315 165
5.226467 96
5.251618 132
5.27677  28
5.301922 54
5.327074 61
5.352226 117
5.377378 7
5.402529 117
5.427681 194
5.452833 83
5.477985 264
5.503137 201
5.528288 37
5.55344  0
5.578592 202
5.603744 99
5.628896 83
5.654047 0
5.679199 70
5.704351 0
5.729503 131
5.754655 66
5.779807 84
5.804958 73
5.83011  33
5.855262 104
5.880414 0
5.905566 0
5.930717 0
5.955869 0
5.981021 0
6.006173 0
6.031325 16
6.056477 75
6.081628 0
6.106781 64
6.131932 53
6.157084 0
6.182236 23
6.207387 0
6.23254  16
6.257691 46
6.282843 91
6.307995 69
6.333147 113
6.358299 36
6.383451 98
6.408602 0
6.433754 0
6.458906 0
6.484058 0
6.50921  67
6.534361 121
6.559513 0
6.584665 0
6.609817 0
6.634969 65
6.66012  49
6.685272 0
6.710424 79
6.735576 81
6.760728 77
6.78588  0
6.811031 17
6.836183 60
6.861335 0
6.886487 21
6.911639 180
6.93679  74
6.961942 58
6.987094 237
7.012246 73
7.037398 265
7.06255  191
7.087701 362
7.112853 497
7.138005 645
7.163157 760
7.188309 1088
7.21346  1308
7.238612 1937
7.263764 2730
7.288916 4074
7.314068 4393
7.33922  1082
7.364371 328
7.389524 67
7.414675 152
7.439827 61
7.464979 58
7.49013  54
7.515283 0
7.540434 0
7.565586 7
7.590738 29
7.61589  0
7.641042 84
7.666193 0
7.691345 20
7.716497 0
7.741649 0
7.7668   0
7.791953 0
7.817104 6
7.842256 74
7.867408 16
7.89256  0
7.917712 0
7.942863 68
7.968015 27
7.993167 0
8.018319 0
8.04347  0
8.068623 6
8.093775 0
8.118926 47
8.144078 5
8.16923  99
8.194382 73
8.219534 217
8.244685 212
8.269837 314
8.294989 268
8.320141 372
8.345292 495
8.370444 786
8.395597 924
8.420748 1464
8.4459   1633
8.471051 689
8.496203 305
8.521356 78
8.546507 72
8.571659 55
8.59681  90
8.621963 65
8.647115 94
8.672266 60
8.697418 43
8.722569 165
8.747722 35
8.772874 21
8.798025 59
8.823177 22
8.848329 60
8.873481 123
8.898633 119
8.923784 35
8.948936 120
8.974088 62
8.99924  61
9.024392 75
9.049543 102
9.074696 82
9.099847 88
9.124999 5
9.150151 199
9.175303 150
9.200455 79
9.225606 33
9.250758 120
9.27591  174
9.301062 64
9.326214 84
9.351365 11
9.376517 147
9.40167  67
9.426821 12
9.451973 134
9.477124 35
9.502276 55
9.527429 115
9.55258  95
9.577732 204
9.602883 106
9.628036 127
9.653188 32
9.678339 107
9.703491 35
9.728642 9
9.753795 140
9.778947 60
9.804098 128
9.82925  30
9.854402 49
9.879554 112
9.904706 67
9.929857 39
9.955009 1
9.980161 26
10.00531 14
