Commander Sample ID
5.0001   124
5.025252 124
5.050404 0
5.075556 0
5.100708 224
5.125859 0
5.151011 0
5.176163 95
5.201315 55
5.226467 60
5.251618 0
5.27677  92
5.301922 17
5.327074 81
5.352226 0
5.377378 0
5.402529 0
5.427681 0
5.452833 0
5.477985 0
5.503137 0
5.528288 0
5.55344  48
5.578592 0
5.603744 41
5.628896 37
5.654047 0
5.679199 0
5.704351 0
5.729503 0
5.754655 11
5.779807 0
5.804958 0
5.83011  11
5.855262 0
5.880414 0
5.905566 0
5.930717 0
5.955869 0
5.981021 0
6.006173 0
6.031325 0
6.056477 0
6.081628 0
6.106781 0
6.131932 0
6.157084 0
6.182236 0
6.207387 0
6.23254  0
6.257691 0
6.282843 0
6.307995 0
6.333147 0
6.358299 0
6.383451 0
6.408602 4
6.433754 0
6.458906 45
6.484058 28
6.50921  3
6.534361 0
6.559513 46
6.584665 0
6.609817 35
6.634969 0
6.66012  0
6.685272 0
6.710424 30
6.735576 88
6.760728 16
6.78588  144
6.811031 178
6.836183 190
6.861335 197
6.886487 350
6.911639 326
6.93679  421
6.961942 338
6.987094 567
7.012246 795
7.037398 957
7.06255  1154
7.087701 1335
7.112853 1602
7.138005 2029
7.163157 2548
7.188309 3176
7.21346  5218
7.238612 8706
7.263764 9512
7.288916 5309
7.314068 1365
7.33922  605
7.364371 292
7.389524 23
7.414675 108
7.439827 114
7.464979 0
7.49013  19
7.515283 0
7.540434 96
7.565586 86
7.590738 14
7.61589  0
7.641042 0
7.666193 0
7.691345 0
7.716497 28
7.741649 0
7.7668   13
7.791953 0
7.817104 0
7.842256 0
7.867408 0
7.89256  5
7.917712 0
7.942863 49
7.968015 0
7.993167 85
8.018319 151
8.04347  120
8.068623 73
8.093775 257
8.118926 63
8.144078 166
8.16923  306
8.194382 390
8.219534 666
8.244685 551
8.269837 984
8.294989 1093
8.320141 1493
8.345292 2069
8.370444 3315
8.395597 4666
8.420748 3018
8.4459   1013
8.471051 397
8.496203 202
8.521356 72
8.546507 48
8.571659 36
8.59681  154
8.621963 13
8.647115 161
8.672266 68
8.697418 15
8.722569 132
8.747722 139
8.772874 97
8.798025 88
8.823177 67
8.848329 73
8.873481 153
8.898633 44
8.923784 60
8.948936 155
8.974088 162
8.99924  123
9.024392 122
9.049543 235
9.074696 19
9.099847 202
9.124999 58
9.150151 118
9.175303 111
9.200455 115
9.225606 164
9.250758 90
9.27591  79
9.301062 103
9.326214 14
9.351365 162
9.376517 7
9.40167  80
9.426821 20
9.451973 112
9.477124 97
9.502276 26
9.527429 109
9.55258  61
9.577732 159
9.602883 135
9.628036 36
9.653188 18
9.678339 167
9.703491 16
9.728642 65
9.753795 48
9.778947 112
9.804098 20
9.82925  67
9.854402 63
9.879554 0
9.904706 51
9.929857 47
9.955009 28
9.980161 0
10.00531 64
